Data from dråber_Absorbance_15-19-21-768.txt Node
Date: Tue Apr 26 15:19:21 CEST 2022
User: au615756
Spectrometer: FLMS05815
Trigger mode: 0
Integration Time (sec): 5.000000E-1
Scans to average: 1
Electric dark correction enabled: true
Nonlinearity correction enabled: false
Boxcar width: 0
XAxis mode: Wavelengths
Number of Pixels in Spectrum: 2048
>>>>>Begin Spectral Data<<<<<
187.008	0.06
187.477	0.06
187.945	0.06
188.413	-0
188.881	0.12
189.349	-0.3
189.817	0.55
190.285	0.44
190.753	0.01
191.22	1
191.688	-0.44
192.156	-0.31
192.623	0.27
193.091	-0
193.559	-0.09
194.026	-0.86
194.493	0.32
194.961	-0.28
195.428	0.52
195.895	-1.4
196.363	-0.41
196.83	0.53
197.297	-0
197.764	-0.18
198.231	0.25
198.698	-0.04
199.165	0.51
199.632	0.02
200.099	0.14
200.566	-0.03
201.032	0.18
201.499	0.12
201.966	0.16
202.432	0.2
202.899	0.1
203.365	0.09
203.832	0.4
204.298	-0.05
204.764	0.55
205.231	0.48
205.697	0.32
206.163	0.29
206.629	0.13
207.095	0.09
207.561	0.32
208.027	0.35
208.493	0.59
208.959	0.23
209.425	0.26
209.891	0.8
210.356	0.14
210.822	0.44
211.288	0.52
211.753	0.43
212.219	0.4
212.684	1.3
213.15	0.54
213.615	0.63
214.08	0.47
214.546	0.75
215.011	0.68
215.476	0.91
215.941	0.71
216.406	0.9
216.871	1.18
217.336	1.09
217.801	1.19
218.266	1.33
218.731	1.36
219.196	1.28
219.66	1.46
220.125	1.7
220.59	1.44
221.054	1.75
221.519	1.67
221.983	1.75
222.448	1.77
222.912	1.84
223.376	1.93
223.841	2.66
224.305	2.27
224.769	1.82
225.233	1.92
225.697	2.39
226.161	2.17
226.625	2.03
227.089	2.12
227.553	2.36
228.017	2.13
228.48	1.89
228.944	1.95
229.408	2.14
229.871	1.96
230.335	1.97
230.798	2.24
231.262	2.29
231.725	2.45
232.188	2.12
232.652	2.45
233.115	2.26
233.578	2.55
234.041	2.14
234.504	2.5
234.967	2.3
235.43	2.27
235.893	2.36
236.356	2.13
236.819	2.12
237.282	2.2
237.745	2.81
238.207	2.13
238.67	2.65
239.132	2.04
239.595	2.57
240.057	2.29
240.52	2.23
240.982	2.09
241.445	2.09
241.907	2.31
242.369	2.61
242.831	2.25
243.293	2.24
243.755	2.45
244.217	2.18
244.679	2.09
245.141	2.12
245.603	2.33
246.065	2.27
246.527	2.25
246.988	2.55
247.45	2.42
247.912	2.21
248.373	2.37
248.835	2.2
249.296	2.36
249.758	2.22
250.219	2.08
250.68	2.47
251.142	2.43
251.603	2.21
252.064	2.42
252.525	2.32
252.986	2.07
253.447	2.16
253.908	2.26
254.369	2.21
254.83	2.27
255.29	2.14
255.751	2.26
256.212	2.22
256.673	2.41
257.133	2.32
257.594	2.27
258.054	2.38
258.515	2.23
258.975	2.13
259.435	2.14
259.895	2.33
260.356	2.2
260.816	2.12
261.276	2.32
261.736	2.09
262.196	2.1
262.656	2.27
263.116	2.27
263.576	2.15
264.036	2.27
264.495	2.18
264.955	2.19
265.415	2.04
265.874	2.07
266.334	2.14
266.793	2.12
267.253	2.2
267.712	2.03
268.172	2.05
268.631	2.1
269.09	2.1
269.549	2.06
270.008	2.02
270.468	1.89
270.927	1.98
271.386	1.97
271.844	1.89
272.303	1.94
272.762	1.91
273.221	1.9
273.68	1.8
274.138	1.84
274.597	1.88
275.056	1.84
275.514	1.85
275.973	1.82
276.431	1.77
276.889	1.79
277.348	1.73
277.806	1.69
278.264	1.67
278.722	1.64
279.18	1.69
279.638	1.63
280.096	1.58
280.554	1.57
281.012	1.54
281.47	1.56
281.928	1.53
282.386	1.45
282.843	1.5
283.301	1.44
283.758	1.43
284.216	1.41
284.674	1.41
285.131	1.37
285.588	1.36
286.046	1.35
286.503	1.35
286.96	1.33
287.417	1.29
287.874	1.26
288.331	1.26
288.789	1.22
289.245	1.2
289.702	1.18
290.159	1.17
290.616	1.15
291.073	1.13
291.529	1.11
291.986	1.09
292.443	1.07
292.899	1.06
293.356	1.07
293.812	1.04
294.269	1.02
294.725	1.03
295.181	1.02
295.637	1
296.094	0.98
296.55	1
297.006	0.97
297.462	0.96
297.918	0.98
298.374	0.97
298.83	0.95
299.285	0.95
299.741	0.94
300.197	0.95
300.653	0.92
301.108	0.94
301.564	0.93
302.019	0.92
302.475	0.92
302.93	0.92
303.385	0.91
303.841	0.91
304.296	0.91
304.751	0.9
305.206	0.89
305.661	0.9
306.116	0.9
306.571	0.9
307.026	0.88
307.481	0.87
307.936	0.87
308.391	0.87
308.846	0.86
309.3	0.88
309.755	0.85
310.209	0.86
310.664	0.85
311.118	0.84
311.573	0.83
312.027	0.83
312.481	0.83
312.936	0.83
313.39	0.82
313.844	0.82
314.298	0.81
314.752	0.81
315.206	0.8
315.66	0.81
316.114	0.79
316.568	0.78
317.022	0.8
317.475	0.78
317.929	0.78
318.383	0.76
318.836	0.76
319.29	0.77
319.743	0.75
320.196	0.75
320.65	0.76
321.103	0.75
321.556	0.74
322.01	0.74
322.463	0.73
322.916	0.72
323.369	0.71
323.822	0.71
324.275	0.7
324.728	0.7
325.181	0.69
325.633	0.67
326.086	0.68
326.539	0.68
326.991	0.66
327.444	0.65
327.896	0.65
328.349	0.67
328.801	0.68
329.254	0.68
329.706	0.65
330.158	0.63
330.61	0.63
331.062	0.63
331.515	0.62
331.967	0.62
332.419	0.62
332.871	0.62
333.322	0.62
333.774	0.62
334.226	0.6
334.678	0.62
335.129	0.61
335.581	0.6
336.033	0.59
336.484	0.6
336.936	0.58
337.387	0.6
337.838	0.58
338.29	0.59
338.741	0.59
339.192	0.57
339.643	0.58
340.094	0.58
340.545	0.57
340.996	0.58
341.447	0.58
341.898	0.56
342.349	0.56
342.8	0.56
343.25	0.55
343.701	0.56
344.152	0.56
344.602	0.55
345.053	0.55
345.503	0.55
345.954	0.54
346.404	0.54
346.854	0.55
347.305	0.53
347.755	0.53
348.205	0.53
348.655	0.52
349.105	0.53
349.555	0.53
350.005	0.53
350.455	0.52
350.905	0.52
351.354	0.52
351.804	0.52
352.254	0.52
352.703	0.52
353.153	0.51
353.602	0.52
354.052	0.51
354.501	0.51
354.95	0.5
355.4	0.51
355.849	0.5
356.298	0.5
356.747	0.49
357.196	0.5
357.645	0.5
358.094	0.51
358.543	0.49
358.992	0.48
359.441	0.49
359.89	0.48
360.338	0.49
360.787	0.49
361.236	0.49
361.684	0.49
362.133	0.48
362.581	0.48
363.029	0.48
363.478	0.48
363.926	0.48
364.374	0.48
364.822	0.48
365.271	0.47
365.719	0.47
366.167	0.47
366.615	0.48
367.062	0.48
367.51	0.48
367.958	0.47
368.406	0.47
368.854	0.48
369.301	0.46
369.749	0.47
370.196	0.47
370.644	0.46
371.091	0.47
371.538	0.47
371.986	0.47
372.433	0.47
372.88	0.46
373.327	0.47
373.775	0.47
374.222	0.46
374.669	0.47
375.115	0.47
375.562	0.47
376.009	0.45
376.456	0.47
376.903	0.47
377.349	0.47
377.796	0.47
378.243	0.46
378.689	0.47
379.135	0.46
379.582	0.46
380.028	0.46
380.475	0.46
380.921	0.47
381.367	0.48
381.813	0.47
382.259	0.47
382.705	0.46
383.151	0.48
383.597	0.48
384.043	0.47
384.489	0.48
384.934	0.46
385.38	0.46
385.826	0.46
386.271	0.46
386.717	0.47
387.162	0.48
387.608	0.47
388.053	0.47
388.499	0.46
388.944	0.46
389.389	0.45
389.834	0.46
390.279	0.46
390.724	0.46
391.169	0.46
391.614	0.45
392.059	0.44
392.504	0.44
392.949	0.43
393.394	0.45
393.838	0.44
394.283	0.44
394.727	0.44
395.172	0.45
395.616	0.47
396.061	0.45
396.505	0.46
396.95	0.45
397.394	0.45
397.838	0.43
398.282	0.44
398.726	0.46
399.17	0.45
399.614	0.44
400.058	0.44
400.502	0.45
400.946	0.47
401.39	0.46
401.833	0.45
402.277	0.46
402.721	0.46
403.164	0.46
403.608	0.47
404.051	0.45
404.494	0.46
404.938	0.47
405.381	0.45
405.824	0.46
406.267	0.46
406.71	0.45
407.154	0.45
407.597	0.47
408.039	0.47
408.482	0.47
408.925	0.47
409.368	0.45
409.811	0.46
410.253	0.45
410.696	0.45
411.139	0.45
411.581	0.45
412.024	0.45
412.466	0.44
412.908	0.43
413.351	0.43
413.793	0.43
414.235	0.43
414.677	0.43
415.119	0.42
415.561	0.42
416.003	0.42
416.445	0.4
416.887	0.42
417.329	0.4
417.771	0.4
418.212	0.4
418.654	0.39
419.096	0.39
419.537	0.37
419.979	0.38
420.42	0.37
420.861	0.36
421.303	0.36
421.744	0.34
422.185	0.36
422.626	0.33
423.067	0.33
423.508	0.33
423.949	0.34
424.39	0.34
424.831	0.32
425.272	0.33
425.713	0.31
426.154	0.3
426.594	0.29
427.035	0.3
427.475	0.33
427.916	0.31
428.356	0.29
428.797	0.3
429.237	0.29
429.677	0.28
430.118	0.28
430.558	0.28
430.998	0.28
431.438	0.26
431.878	0.27
432.318	0.27
432.758	0.26
433.198	0.28
433.638	0.28
434.077	0.28
434.517	0.27
434.957	0.26
435.396	0.26
435.836	0.25
436.275	0.24
436.715	0.24
437.154	0.22
437.593	0.21
438.032	0.2
438.472	0.22
438.911	0.24
439.35	0.23
439.789	0.22
440.228	0.23
440.667	0.23
441.106	0.24
441.544	0.23
441.983	0.23
442.422	0.2
442.86	0.2
443.299	0.23
443.738	0.22
444.176	0.22
444.615	0.2
445.053	0.2
445.491	0.22
445.929	0.21
446.368	0.2
446.806	0.21
447.244	0.21
447.682	0.21
448.12	0.2
448.558	0.2
448.996	0.21
449.434	0.19
449.871	0.2
450.309	0.2
450.747	0.2
451.184	0.19
451.622	0.19
452.059	0.19
452.497	0.2
452.934	0.2
453.371	0.19
453.809	0.19
454.246	0.19
454.683	0.19
455.12	0.19
455.557	0.2
455.994	0.19
456.431	0.19
456.868	0.18
457.305	0.18
457.742	0.19
458.178	0.17
458.615	0.18
459.052	0.17
459.488	0.18
459.925	0.18
460.361	0.2
460.797	0.18
461.234	0.18
461.67	0.16
462.106	0.16
462.542	0.17
462.979	0.17
463.415	0.18
463.851	0.18
464.287	0.17
464.722	0.17
465.158	0.16
465.594	0.15
466.03	0.16
466.465	0.15
466.901	0.15
467.337	0.15
467.772	0.16
468.208	0.2
468.643	0.17
469.078	0.16
469.514	0.15
469.949	0.14
470.384	0.16
470.819	0.17
471.254	0.17
471.689	0.16
472.124	0.13
472.559	0.17
472.994	0.14
473.429	0.15
473.863	0.15
474.298	0.15
474.733	0.14
475.167	0.14
475.602	0.14
476.036	0.14
476.471	0.12
476.905	0.14
477.339	0.14
477.773	0.13
478.208	0.14
478.642	0.14
479.076	0.14
479.51	0.15
479.944	0.14
480.378	0.14
480.811	0.13
481.245	0.13
481.679	0.14
482.113	0.13
482.546	0.13
482.98	0.13
483.413	0.13
483.847	0.13
484.28	0.14
484.713	0.14
485.147	0.13
485.58	0.13
486.013	0.12
486.446	0.12
486.879	0.12
487.312	0.11
487.745	0.11
488.178	0.14
488.611	0.14
489.044	0.12
489.477	0.14
489.909	0.15
490.342	0.13
490.774	0.12
491.207	0.13
491.639	0.12
492.072	0.13
492.504	0.12
492.936	0.12
493.369	0.11
493.801	0.12
494.233	0.12
494.665	0.12
495.097	0.11
495.529	0.12
495.961	0.11
496.393	0.12
496.824	0.11
497.256	0.11
497.688	0.09
498.119	0.09
498.551	0.13
498.982	0.14
499.414	0.13
499.845	0.11
500.277	0.11
500.708	0.1
501.139	0.11
501.57	0.1
502.001	0.12
502.432	0.1
502.863	0.1
503.294	0.09
503.725	0.1
504.156	0.1
504.587	0.11
505.017	0.1
505.448	0.1
505.879	0.11
506.309	0.1
506.74	0.1
507.17	0.1
507.601	0.12
508.031	0.1
508.461	0.11
508.891	0.1
509.321	0.1
509.752	0.09
510.182	0.1
510.612	0.1
511.042	0.12
511.471	0.09
511.901	0.09
512.331	0.1
512.761	0.1
513.19	0.1
513.62	0.1
514.049	0.11
514.479	0.1
514.908	0.1
515.338	0.1
515.767	0.11
516.196	0.09
516.625	0.1
517.055	0.1
517.484	0.1
517.913	0.1
518.342	0.09
518.771	0.11
519.199	0.11
519.628	0.11
520.057	0.09
520.486	0.09
520.914	0.08
521.343	0.11
521.771	0.11
522.2	0.11
522.628	0.1
523.057	0.1
523.485	0.09
523.913	0.1
524.341	0.11
524.77	0.09
525.198	0.11
525.626	0.1
526.054	0.1
526.481	0.1
526.909	0.11
527.337	0.11
527.765	0.1
528.192	0.1
528.62	0.1
529.048	0.11
529.475	0.11
529.903	0.11
530.33	0.11
530.757	0.11
531.185	0.13
531.612	0.12
532.039	0.11
532.466	0.12
532.893	0.11
533.32	0.13
533.747	0.12
534.174	0.12
534.601	0.1
535.028	0.11
535.454	0.11
535.881	0.12
536.308	0.12
536.734	0.12
537.161	0.12
537.587	0.13
538.013	0.12
538.44	0.13
538.866	0.12
539.292	0.1
539.718	0.11
540.144	0.12
540.57	0.11
540.996	0.13
541.422	0.12
541.848	0.13
542.274	0.12
542.7	0.11
543.125	0.11
543.551	0.1
543.977	0.1
544.402	0.12
544.828	0.1
545.253	0.11
545.678	0.11
546.104	0.11
546.529	0.11
546.954	0.11
547.379	0.12
547.804	0.13
548.229	0.12
548.654	0.12
549.079	0.12
549.504	0.12
549.929	0.15
550.353	0.17
550.778	0.16
551.203	0.16
551.627	0.16
552.052	0.15
552.476	0.15
552.901	0.18
553.325	0.16
553.749	0.15
554.173	0.15
554.598	0.18
555.022	0.18
555.446	0.19
555.87	0.17
556.294	0.19
556.718	0.19
557.141	0.15
557.565	0.19
557.989	0.2
558.412	0.2
558.836	0.21
559.26	0.2
559.683	0.22
560.106	0.21
560.53	0.22
560.953	0.22
561.376	0.2
561.8	0.21
562.223	0.21
562.646	0.22
563.069	0.22
563.492	0.24
563.915	0.25
564.337	0.25
564.76	0.23
565.183	0.22
565.606	0.26
566.028	0.26
566.451	0.25
566.873	0.27
567.296	0.27
567.718	0.27
568.14	0.28
568.563	0.26
568.985	0.27
569.407	0.25
569.829	0.28
570.251	0.28
570.673	0.28
571.095	0.3
571.517	0.28
571.939	0.29
572.361	0.31
572.782	0.29
573.204	0.3
573.625	0.33
574.047	0.34
574.468	0.35
574.89	0.32
575.311	0.3
575.732	0.35
576.154	0.34
576.575	0.34
576.996	0.36
577.417	0.38
577.838	0.38
578.259	0.34
578.68	0.35
579.101	0.34
579.522	0.31
579.942	0.37
580.363	0.44
580.784	0.44
581.204	0.42
581.625	0.38
582.045	0.41
582.465	0.38
582.886	0.36
583.306	0.34
583.726	0.43
584.146	0.48
584.566	0.47
584.986	0.48
585.406	0.46
585.826	0.43
586.246	0.39
586.666	0.39
587.086	0.41
587.505	0.46
587.925	0.49
588.345	0.48
588.764	0.46
589.184	0.45
589.603	0.45
590.022	0.5
590.442	0.49
590.861	0.52
591.28	0.48
591.699	0.47
592.118	0.5
592.537	0.5
592.956	0.49
593.375	0.46
593.794	0.45
594.212	0.47
594.631	0.44
595.05	0.48
595.468	0.54
595.887	0.57
596.305	0.57
596.724	0.52
597.142	0.5
597.56	0.56
597.979	0.57
598.397	0.56
598.815	0.54
599.233	0.51
599.651	0.52
600.069	0.56
600.487	0.57
600.905	0.53
601.322	0.59
601.74	0.61
602.158	0.6
602.575	0.66
602.993	0.65
603.41	0.65
603.828	0.67
604.245	0.64
604.663	0.62
605.08	0.61
605.497	0.63
605.914	0.68
606.331	0.7
606.748	0.71
607.165	0.66
607.582	0.71
607.999	0.72
608.416	0.75
608.832	0.74
609.249	0.74
609.666	0.77
610.082	0.82
610.499	0.83
610.915	0.83
611.332	0.82
611.748	0.83
612.164	0.85
612.58	0.87
612.997	0.89
613.413	0.86
613.829	0.9
614.245	0.9
614.661	0.89
615.076	0.92
615.492	0.92
615.908	0.98
616.324	0.92
616.739	0.94
617.155	0.98
617.57	1
617.986	1.04
618.401	1.04
618.817	1.08
619.232	0.98
619.647	1.02
620.062	1.08
620.477	1.09
620.892	1.08
621.307	1.1
621.722	1.09
622.137	1.12
622.552	1.2
622.967	1.16
623.381	1.08
623.796	1.07
624.211	1.2
624.625	1.27
625.04	1.27
625.454	1.3
625.868	1.23
626.283	1.18
626.697	1.29
627.111	1.26
627.525	1.28
627.939	1.23
628.353	1.24
628.767	1.25
629.181	1.22
629.595	1.27
630.009	1.31
630.422	1.25
630.836	1.27
631.249	1.33
631.663	1.22
632.076	1.25
632.49	1.35
632.903	1.3
633.316	1.22
633.73	1.31
634.143	1.24
634.556	1.21
634.969	1.11
635.382	1.24
635.795	1.22
636.208	1.16
636.621	1.14
637.033	1.09
637.446	1.07
637.859	1.13
638.271	1.11
638.684	1.1
639.096	1.17
639.509	1.1
639.921	1.06
640.333	1.06
640.746	1.04
641.158	1.04
641.57	1
641.982	1.02
642.394	1.05
642.806	1
643.218	0.96
643.63	0.97
644.041	0.89
644.453	0.9
644.865	0.94
645.276	0.9
645.688	0.91
646.099	0.83
646.511	0.82
646.922	0.87
647.333	0.89
647.745	0.76
648.156	0.76
648.567	0.69
648.978	0.7
649.389	0.71
649.8	0.65
650.211	0.62
650.622	0.63
651.032	0.63
651.443	0.6
651.854	0.63
652.264	0.59
652.675	0.55
653.085	0.55
653.496	0.57
653.906	0.53
654.316	0.51
654.726	0.49
655.137	0.47
655.547	0.46
655.957	0.48
656.367	0.43
656.777	0.39
657.187	0.19
657.596	0.21
658.006	0.26
658.416	0.5
658.826	0.6
659.235	0.46
659.645	0.36
660.054	0.31
660.463	0.32
660.873	0.34
661.282	0.32
661.691	0.28
662.1	0.28
662.51	0.26
662.919	0.27
663.328	0.25
663.737	0.25
664.145	0.23
664.554	0.23
664.963	0.22
665.372	0.19
665.78	0.2
666.189	0.18
666.597	0.19
667.006	0.19
667.414	0.18
667.823	0.18
668.231	0.16
668.639	0.16
669.047	0.17
669.455	0.14
669.863	0.15
670.271	0.16
670.679	0.14
671.087	0.13
671.495	0.14
671.903	0.11
672.31	0.11
672.718	0.12
673.126	0.09
673.533	0.08
673.941	0.08
674.348	0.11
674.755	0.12
675.163	0.11
675.57	0.12
675.977	0.09
676.384	0.08
676.791	0.08
677.198	0.08
677.605	0.09
678.012	0.06
678.419	0.07
678.825	0.08
679.232	0.07
679.639	0.06
680.045	0.05
680.452	0.08
680.858	0.05
681.264	0.05
681.671	0.05
682.077	0.06
682.483	0.07
682.889	0.06
683.295	0.04
683.701	0.05
684.107	0.06
684.513	0.08
684.919	0.06
685.325	0.03
685.731	0.03
686.136	0.02
686.542	0.03
686.947	0.03
687.353	0.02
687.758	0.04
688.164	0.06
688.569	0.05
688.974	0.04
689.379	0.05
689.784	0.03
690.19	0.06
690.595	0.05
690.999	0.04
691.404	0.02
691.809	0.02
692.214	0.04
692.619	0.02
693.023	0.01
693.428	0.01
693.832	0.05
694.237	0.06
694.641	0.03
695.046	0.03
695.45	0.02
695.854	0.03
696.258	0.03
696.662	0.02
697.066	0.02
697.47	0.01
697.874	0.03
698.278	0.02
698.682	-0.02
699.086	-0.03
699.489	0.04
699.893	0.07
700.297	0.04
700.7	0.03
701.104	0.03
701.507	0.03
701.91	0.02
702.314	0.02
702.717	0.03
703.12	0.01
703.523	0.01
703.926	0.02
704.329	0.01
704.732	0.02
705.135	0.03
705.538	0.06
705.94	0.03
706.343	0.02
706.746	0.02
707.148	0.03
707.551	0.03
707.953	-0.01
708.355	-0.03
708.758	-0.03
709.16	0.01
709.562	0.04
709.964	0.03
710.366	0.02
710.768	0.04
711.17	0.03
711.572	0.03
711.974	0.01
712.376	-0.01
712.777	0.01
713.179	0.03
713.581	0.04
713.982	0.01
714.384	-0.01
714.785	0
715.186	0.01
715.588	0.01
715.989	0.02
716.39	0.01
716.791	0
717.192	0.01
717.593	0.02
717.994	0.05
718.395	0.01
718.796	0.01
719.196	0.03
719.597	0
719.998	0.02
720.398	0.01
720.799	0.04
721.199	0.01
721.6	0.01
722	0.03
722.4	0.02
722.8	0
723.201	0
723.601	0.03
724.001	0.01
724.401	0.02
724.8	0.03
725.2	0.03
725.6	0.03
726	0.02
726.399	0.02
726.799	0.01
727.199	-0
727.598	0.03
727.997	0.02
728.397	0.02
728.796	0.02
729.195	0.02
729.594	-0.01
729.994	0.01
730.393	0.01
730.792	0.03
731.19	0.01
731.589	0.02
731.988	-0
732.387	-0.01
732.786	0
733.184	0
733.583	0.05
733.981	0.02
734.38	0.01
734.778	-0.01
735.176	0.01
735.575	0.02
735.973	0.01
736.371	0.03
736.769	0.04
737.167	0
737.565	0.01
737.963	0.03
738.361	0.03
738.759	0.02
739.156	0.01
739.554	0.01
739.951	0
740.349	-0
740.746	0.01
741.144	-0
741.541	0.04
741.938	0.06
742.336	0.02
742.733	0.02
743.13	0.03
743.527	0.03
743.924	0.02
744.321	0
744.718	0.01
745.115	0.03
745.511	0.03
745.908	0.05
746.305	0.04
746.701	0.03
747.098	0.02
747.494	0.01
747.89	0.01
748.287	0.02
748.683	0.03
749.079	0.04
749.475	0.03
749.871	0.02
750.267	0.03
750.663	0.02
751.059	-0.01
751.455	-0.21
751.851	-0.21
752.246	-0.07
752.642	0.15
753.038	0.15
753.433	0.04
753.829	0.09
754.224	0.06
754.619	0.03
755.015	0.01
755.41	0
755.805	0.01
756.2	0.02
756.595	0.01
756.99	-0
757.385	-0
757.78	0.01
758.175	0.01
758.569	-0.03
758.964	-0.01
759.359	0
759.753	0
760.148	0.08
760.542	0.04
760.936	0.02
761.331	0.01
761.725	0.01
762.119	0
762.513	-0.01
762.907	0.02
763.301	0.04
763.695	0.02
764.089	0.02
764.483	-0.02
764.877	-0.07
765.27	-0.02
765.664	0.05
766.057	0.04
766.451	-0.01
766.844	0.01
767.238	0.04
767.631	0.05
768.024	0.05
768.417	0.04
768.811	0.01
769.204	0.01
769.597	-0.01
769.99	-0.02
770.383	-0
770.775	0.02
771.168	0.05
771.561	0.03
771.953	0.02
772.346	0.02
772.739	0.01
773.131	0.02
773.523	0.01
773.916	-0
774.308	0.02
774.7	0.03
775.092	0.04
775.484	0.01
775.876	0.01
776.268	0.01
776.66	0.02
777.052	0.01
777.444	0.03
777.836	0.01
778.227	0
778.619	0.01
779.01	0.01
779.402	0
779.793	0.02
780.185	0
780.576	0.01
780.967	0.02
781.358	0.02
781.749	0.03
782.14	0.03
782.531	-0.03
782.922	-0.01
783.313	0.01
783.704	0.04
784.095	0.01
784.485	0.01
784.876	0.01
785.266	0.02
785.657	0.03
786.047	0.02
786.438	0.01
786.828	0
787.218	0.01
787.608	-0.01
787.998	-0
788.389	0.04
788.779	0.03
789.168	0.01
789.558	-0.01
789.948	-0.02
790.338	-0.01
790.728	0.02
791.117	0.05
791.507	0.04
791.896	0.01
792.286	-0
792.675	0.01
793.064	-0.01
793.454	-0.01
793.843	0.03
794.232	0.01
794.621	0.01
795.01	-0.01
795.399	-0.04
795.788	-0.04
796.176	-0.01
796.565	0.04
796.954	0.05
797.343	0.05
797.731	0.04
798.12	0.02
798.508	0.02
798.896	-0.02
799.285	-0.02
799.673	0
800.061	0.03
800.449	0.02
800.837	-0.01
801.225	0.02
801.613	0
802.001	0.02
802.389	0.02
802.777	-0
803.164	0.02
803.552	0.02
803.94	0.01
804.327	0
804.715	0.01
805.102	0
805.489	0.01
805.877	0.03
806.264	0.01
806.651	0.01
807.038	-0.01
807.425	-0.01
807.812	-0.01
808.199	0.01
808.586	0.02
808.972	0.02
809.359	0
809.746	-0.01
810.132	0.03
810.519	0.03
810.905	0.02
811.292	0.01
811.678	-0.01
812.064	-0.02
812.45	-0.01
812.836	-0.04
813.223	0.01
813.609	0.05
813.995	0.04
814.38	0.01
814.766	-0
815.152	-0.04
815.538	0.01
815.923	0.02
816.309	0.03
816.694	-0.01
817.08	0.01
817.465	0.02
817.851	0.01
818.236	-0.01
818.621	-0.02
819.006	0
819.391	0.03
819.776	0.03
820.161	-0
820.546	0.02
820.931	0.02
821.316	0.01
821.7	-0.01
822.085	-0.02
822.47	0.01
822.854	0.02
823.239	0.04
823.623	0.01
824.007	0.01
824.391	-0
824.776	-0.01
825.16	0.01
825.544	0.01
825.928	0.01
826.312	0
826.696	-0.02
827.08	-0.01
827.463	-0.03
827.847	-0.01
828.231	-0.03
828.614	-0.01
828.998	-0.01
829.381	-0
829.765	0.04
830.148	0.03
830.531	0.01
830.914	0
831.297	0.02
831.681	0.02
832.064	0.01
832.446	-0.01
832.829	0.02
833.212	0.01
833.595	0.01
833.978	-0.01
834.36	0.01
834.743	0.02
835.125	0.02
835.508	0.01
835.89	-0
836.272	0.01
836.655	0.03
837.037	0.01
837.419	0.02
837.801	0.02
838.183	0.01
838.565	-0.01
838.947	0
839.329	0
839.71	-0.01
840.092	0
840.474	0.01
840.855	-0.01
841.237	0.02
841.618	-0.04
842	-0.03
842.381	0.02
842.762	0.04
843.143	0.02
843.525	-0.03
843.906	0
844.287	0.01
844.667	0.03
845.048	0.01
845.429	0.01
845.81	0.02
846.191	0.01
846.571	0
846.952	0
847.332	0
847.713	0.01
848.093	0.01
848.473	-0.01
848.854	-0.02
849.234	0.01
849.614	0.01
849.994	0.02
850.374	-0
850.754	0
851.134	-0.01
851.513	-0
851.893	0.01
852.273	-0
852.652	-0
853.032	0
853.411	0
853.791	0.01
854.17	0.01
854.55	0.02
854.929	0.01
855.308	0.03
855.687	0
856.066	0.02
856.445	-0
856.824	-0
857.203	-0
857.582	-0
857.96	0
858.339	0
858.718	0.01
859.096	0.03
859.475	0.01
859.853	-0.01
860.231	-0
860.61	0.02
860.988	0
861.366	0.01
861.744	-0.01
862.122	0
862.5	0
862.878	-0.01
863.256	-0.01
863.633	-0
864.011	-0
864.389	-0
864.766	0
865.144	-0.02
865.521	0.03
865.899	0.01
866.276	0
866.653	0.01
867.031	0
867.408	-0
867.785	-0.01
868.162	0.01
868.539	0.02
868.916	-0
869.292	-0.01
869.669	0.01
870.046	0
870.422	-0.01
870.799	-0.01
871.175	-0.01
871.552	-0
871.928	-0.02
872.305	-0
872.681	-0
873.057	0.01
873.433	-0
873.809	0.01
874.185	-0.01
874.561	0
874.937	-0.01
875.313	-0.01
875.688	-0.01
876.064	0.01
876.44	-0.01
876.815	-0
877.191	0
877.566	0
877.942	-0.02
878.317	-0.01
878.692	-0.02
879.067	-0.01
879.442	-0
879.817	0.01
880.192	-0.01
880.567	0.02
880.942	-0
881.317	-0.02
881.691	0.01
882.066	0
882.441	0.03
882.815	-0.01
883.19	-0.01
883.564	-0.02
883.938	0.01
884.313	0.02
884.687	-0
885.061	-0.02
885.435	-0
885.809	-0.01
886.183	-0.01
886.557	0.01
886.931	-0.02
887.305	-0.01
887.678	0.01
888.052	-0.01
888.425	-0.01
888.799	-0.02
889.172	-0.02
889.546	-0.01
889.919	-0.01
890.292	-0.02
890.665	-0.02
891.039	-0
891.412	-0
891.785	-0.01
892.157	-0.02
892.53	-0.03
892.903	-0.02
893.276	0.03
893.648	-0.01
894.021	-0.02
894.394	-0.02
894.766	-0.02
895.139	-0.01
895.511	-0.03
895.883	-0.02
896.255	-0
896.627	-0.04
897	-0.03
897.372	-0.01
897.744	-0.03
898.115	-0.01
898.487	-0.02
898.859	0.02
899.231	0
899.602	-0
899.974	-0.02
900.345	0.01
900.717	0.01
901.088	0.01
901.46	-0.03
901.831	-0.02
902.202	-0.04
902.573	-0.04
902.944	-0.01
903.315	-0.01
903.686	-0.02
904.057	-0.02
904.428	-0.01
904.799	-0.02
905.169	-0.04
905.54	-0.03
905.91	-0.02
906.281	-0.01
906.651	-0.02
907.022	-0.01
907.392	-0
907.762	0.01
908.132	-0.01
908.502	-0.02
908.872	-0.03
909.242	-0.02
909.612	0.01
909.982	-0.01
910.352	-0.03
910.722	-0.06
911.091	-0.03
911.461	-0.05
911.83	-0.02
912.2	-0.01
912.569	-0.02
912.938	-0.04
913.308	-0.06
913.677	-0.04
914.046	-0.03
914.415	-0.01
914.784	-0.03
915.153	-0.03
915.522	-0
915.891	-0.03
916.259	-0.03
916.628	-0.07
916.997	-0.04
917.365	-0.04
917.734	-0.04
918.102	-0.07
918.47	0.01
918.839	-0.03
919.207	-0.07
919.575	-0.04
919.943	-0.06
920.311	-0.07
920.679	-0.04
921.047	-0.07
921.415	-0.03
921.783	-0.02
922.15	-0.04
922.518	-0.05
922.886	-0.07
923.253	-0.06
923.62	-0.05
923.988	-0.04
924.355	-0.04
924.722	-0.11
925.09	-0.03
925.457	-0.1
925.824	-0.05
926.191	-0.06
926.558	-0.08
926.925	-0.05
927.291	-0.03
927.658	-0.04
928.025	-0.09
928.391	-0.08
928.758	-0.1
929.124	-0.09
929.491	-0.11
929.857	-0.05
930.223	-0.11
930.59	-0.09
930.956	-0.11
931.322	-0.08
931.688	-0.07
932.054	-0.08
932.42	-0.02
932.785	-0.02
933.151	-0.02
933.517	-0.04
933.882	-0
934.248	-0.1
934.613	-0.03
934.979	-0.07
935.344	-0.09
935.71	-0.09
936.075	-0.05
936.44	-0.04
936.805	-0.08
937.17	-0.02
937.535	-0.1
937.9	-0.05
938.265	-0
938.63	-0.06
938.994	-0.11
939.359	-0.06
939.724	-0.04
940.088	-0.07
940.453	-0.05
940.817	-0.09
941.181	-0.05
941.545	-0.07
941.91	-0.13
942.274	-0.07
942.638	-0.01
943.002	-0.12
943.366	-0.07
943.73	-0.11
944.093	-0.13
944.457	-0.06
944.821	0.02
945.184	-0.14
945.548	-0.09
945.911	-0.06
946.275	-0.08
946.638	-0.14
947.001	-0.12
947.365	-0.05
947.728	-0.08
948.091	-0.13
948.454	-0.09
948.817	-0.07
949.18	-0.05
949.543	-0.13
949.905	-0.1
950.268	-0.1
950.631	-0.04
950.993	-0.02
951.356	-0.09
951.718	-0.11
952.08	-0.11
952.443	-0.06
952.805	-0.06
953.167	-0.12
953.529	-0.08
953.891	-0.07
954.253	-0.09
954.615	-0.06
954.977	0.05
955.339	-0.06
955.7	-0.22
956.062	-0.19
956.424	-0.07
956.785	0.01
957.147	-0.08
957.508	-0.19
957.869	-0.1
958.231	-0.21
958.592	-0.09
958.953	-0.09
959.314	-0.05
959.675	0.17
960.036	0.01
960.397	0.09
960.757	-0.39
961.118	-0.11
961.479	0.03
961.839	0.03
962.2	0.35
962.56	-0.41
962.921	-0.53
963.281	-0.21
963.641	-0.32
964.002	-0.13
964.362	-0.01
964.722	-0.11
965.082	0.09
965.442	0.22
965.801	-0.24
966.161	-0.16
966.521	0.29
966.881	-0.04
967.24	0.01
967.6	-0.12
967.959	-0.14
968.319	-0.85
968.678	0.04
969.037	-0.16
969.397	0.1
969.756	-0.51
970.115	-0.04
970.474	0.03
970.833	0.03
971.192	0.03
971.55	-0.11
971.909	0.01
972.268	-0.23
972.626	-0.14
972.985	-0.66
973.343	-0.01
973.702	-0.52
974.06	-0.28
974.418	-0.01
974.777	-0.21
975.135	-0.15
975.493	-0.07
975.851	0.3
976.209	0.07
976.567	-0.14
976.925	-0.14
977.282	-0.17
977.64	-0.52
977.998	-0.36
978.355	0.12
978.713	-0.53
979.07	0.13
979.428	-0.37
979.785	-0.5
980.142	0
980.499	-0.07
980.856	-0.18
981.213	-0
981.57	-0.81
981.927	1.16
982.284	-0
982.641	-0.06
982.997	-0.25
983.354	-0.12
983.711	-0.19
984.067	-0.17
984.424	-0.23
984.78	-0
985.136	-0.38
985.493	-0.11
985.849	-0.7
986.205	-0.09
986.561	-0.63
986.917	-0
987.273	-0.94
987.629	0.25
987.984	-0.12
988.34	-0.29
988.696	-0
989.051	-0.35
989.407	0.02
989.762	-0.04
990.118	-0.02
990.473	-0.06
990.828	-0
991.183	0.1
991.538	0.14
991.893	-0.27
992.248	-0.02
992.603	-0.17
992.958	-0.55
993.313	-0
993.668	-0.31
994.022	-0
994.377	-0.14
994.731	0.63
995.086	-0
995.44	-0
995.794	0.47
996.149	0.17
996.503	-0.32
996.857	-0.22
997.211	-0.36
997.565	-0
997.919	-0
998.273	0.17
998.627	0.31
998.98	-0.12
999.334	0.09
999.687	-0.53
1000.041	-0.18
1000.394	-0
1000.748	0.21
1001.101	-0.35
1001.454	0.76
1001.808	-0.14
1002.161	0.07
1002.514	-0.6
1002.867	-0
1003.22	-0
1003.572	-0.07
1003.925	-0.71
1004.278	-0
1004.631	-0
1004.983	-0.85
1005.336	-0
1005.688	-0.77
1006.04	-0.63
1006.393	-0
1006.745	0.29
1007.097	0.07
1007.449	-0.35
1007.801	-0
1008.153	-0.15
1008.505	-0.36
1008.857	-0
1009.209	-0
1009.561	-0.13
1009.912	0.18
1010.264	-0.41
1010.615	-0.27
1010.967	-0.13
1011.318	-0.35
1011.669	-0.2
1012.021	0.92
1012.372	-0
1012.723	-0
1013.074	-0.2
1013.425	-0.1
1013.776	0.08
1014.127	0.58
1014.477	-0.08
1014.828	1.12
1015.179	-0.25
1015.529	-0.97
1015.88	0.55
1016.23	-0.63
1016.581	-0.88
1016.931	0.28
1017.281	-0.04
1017.631	-0.26
1017.982	-0.83
1018.332	1.07
1018.682	-0.18
1019.031	-0.38
1019.381	-1.11
1019.731	-0.58
1020.081	-0.86
1020.43	0.39
1020.78	0.06
1021.129	-0.39
1021.479	-0
1021.828	-0.18
1022.178	-0
1022.527	-0
1022.876	-0.18
1023.225	-0.36
1023.574	-0.12
1023.923	-0
1024.272	-0.18
1024.621	0.02
1024.97	-0
1025.318	-0
1025.667	-0.21
1026.015	-0.02
1026.364	-0
1026.712	-0
1027.061	-0
1027.409	-0.34
1027.757	-0
1028.105	-0
1028.453	-0
