Data from dråber_Absorbance_15-20-15-266.txt Node
Date: Tue Apr 26 15:20:15 CEST 2022
User: au615756
Spectrometer: FLMS05815
Trigger mode: 0
Integration Time (sec): 5,000000E-1
Scans to average: 1
Electric dark correction enabled: true
Nonlinearity correction enabled: false
Boxcar width: 0
XAxis mode: Wavelengths
Number of Pixels in Spectrum: 2048
>>>>>Begin Spectral Data<<<<<
187,008	0,41
187,477	0,41
187,945	0,41
188,413	-0,34
188,881	-0,1
189,349	-0,5
189,817	-0,35
190,285	-0,22
190,753	0,42
191,22	0,06
191,688	-0,33
192,156	-0,04
192,623	1,09
193,091	-1,01
193,559	0,31
194,026	-0,78
194,493	0,71
194,961	-0
195,428	-0
195,895	-1,91
196,363	-0
196,83	0,07
197,297	-0
197,764	0,09
198,231	0,58
198,698	1,28
199,165	0,12
199,632	0,26
200,099	0,31
200,566	0,32
201,032	0,35
201,499	0,33
201,966	0,9
202,432	0,38
202,899	0,4
203,365	0,46
203,832	0,31
204,298	0,34
204,764	0,3
205,231	0,51
205,697	0,45
206,163	1,36
206,629	0,15
207,095	0,4
207,561	0,19
208,027	0,34
208,493	0,36
208,959	0,34
209,425	0,31
209,891	-0
210,356	0,87
210,822	0,83
211,288	0,93
211,753	0,96
212,219	0,57
212,684	0,88
213,15	0,78
213,615	0,89
214,08	0,9
214,546	0,81
215,011	0,84
215,476	1,29
215,941	0,92
216,406	0,98
216,871	1,39
217,336	1,67
217,801	1,43
218,266	1,45
218,731	1,6
219,196	1,34
219,66	1,6
220,125	1,56
220,59	1,84
221,054	3,58
221,519	1,84
221,983	1,52
222,448	1,9
222,912	2,08
223,376	1,92
223,841	2,71
224,305	2,04
224,769	1,94
225,233	1,91
225,697	2,59
226,161	2,3
226,625	2,13
227,089	2,12
227,553	3,48
228,017	2,3
228,48	2,08
228,944	2,24
229,408	2,64
229,871	2,2
230,335	2,25
230,798	2,37
231,262	2,16
231,725	2,31
232,188	2,67
232,652	2,28
233,115	2,3
233,578	2,86
234,041	2,54
234,504	2,31
234,967	2,55
235,43	2,5
235,893	3
236,356	2,24
236,819	2,53
237,282	2,31
237,745	3,28
238,207	2,9
238,67	3,17
239,132	-0
239,595	2,67
240,057	2,46
240,52	2,21
240,982	2,45
241,445	2,24
241,907	2,48
242,369	3,18
242,831	2,5
243,293	2,27
243,755	2,37
244,217	2,32
244,679	2,26
245,141	2,63
245,603	2,55
246,065	2,47
246,527	2,28
246,988	2,39
247,45	2,61
247,912	2,44
248,373	2,44
248,835	2,35
249,296	2,58
249,758	2,31
250,219	2,51
250,68	2,46
251,142	2,87
251,603	2,66
252,064	2,87
252,525	2,31
252,986	2,34
253,447	2,6
253,908	2,53
254,369	2,34
254,83	2,66
255,29	2,45
255,751	3,1
256,212	2,79
256,673	2,68
257,133	3,65
257,594	2,5
258,054	2,92
258,515	2,29
258,975	2,18
259,435	2,38
259,895	2,59
260,356	2,56
260,816	2,49
261,276	2,48
261,736	2,37
262,196	2,38
262,656	2,5
263,116	2,5
263,576	2,52
264,036	2,58
264,495	2,29
264,955	2,49
265,415	2,35
265,874	2,34
266,334	2,25
266,793	2,44
267,253	2,41
267,712	2,31
268,172	2,22
268,631	2,42
269,09	2,42
269,549	2,29
270,008	2,35
270,468	2,21
270,927	2,19
271,386	2,56
271,844	2,07
272,303	2,19
272,762	2,07
273,221	2,16
273,68	2,15
274,138	2,39
274,597	2,26
275,056	2,19
275,514	2,1
275,973	2,15
276,431	2,03
276,889	2,11
277,348	2,03
277,806	1,94
278,264	1,93
278,722	1,96
279,18	1,86
279,638	1,96
280,096	1,88
280,554	1,81
281,012	1,77
281,47	1,8
281,928	1,81
282,386	1,76
282,843	1,73
283,301	1,75
283,758	1,66
284,216	1,7
284,674	1,68
285,131	1,59
285,588	1,61
286,046	1,63
286,503	1,62
286,96	1,64
287,417	1,54
287,874	1,51
288,331	1,5
288,789	1,49
289,245	1,43
289,702	1,43
290,159	1,38
290,616	1,36
291,073	1,35
291,529	1,34
291,986	1,29
292,443	1,29
292,899	1,28
293,356	1,29
293,812	1,27
294,269	1,28
294,725	1,24
295,181	1,23
295,637	1,23
296,094	1,23
296,55	1,18
297,006	1,19
297,462	1,21
297,918	1,18
298,374	1,18
298,83	1,16
299,285	1,17
299,741	1,16
300,197	1,18
300,653	1,16
301,108	1,15
301,564	1,15
302,019	1,14
302,475	1,12
302,93	1,13
303,385	1,12
303,841	1,11
304,296	1,11
304,751	1,1
305,206	1,09
305,661	1,11
306,116	1,1
306,571	1,11
307,026	1,08
307,481	1,08
307,936	1,08
308,391	1,09
308,846	1,06
309,3	1,06
309,755	1,06
310,209	1,06
310,664	1,04
311,118	1,04
311,573	1,03
312,027	1,02
312,481	1,02
312,936	1,02
313,39	1,01
313,844	1,02
314,298	1
314,752	1
315,206	1,01
315,66	0,99
316,114	0,97
316,568	0,97
317,022	0,97
317,475	0,97
317,929	0,96
318,383	0,95
318,836	0,95
319,29	0,96
319,743	0,94
320,196	0,94
320,65	0,93
321,103	0,92
321,556	0,92
322,01	0,92
322,463	0,89
322,916	0,9
323,369	0,88
323,822	0,88
324,275	0,88
324,728	0,87
325,181	0,86
325,633	0,85
326,086	0,84
326,539	0,84
326,991	0,83
327,444	0,82
327,896	0,81
328,349	0,84
328,801	0,85
329,254	0,84
329,706	0,82
330,158	0,8
330,61	0,78
331,062	0,78
331,515	0,78
331,967	0,78
332,419	0,79
332,871	0,78
333,322	0,77
333,774	0,77
334,226	0,77
334,678	0,77
335,129	0,77
335,581	0,76
336,033	0,76
336,484	0,75
336,936	0,74
337,387	0,75
337,838	0,72
338,29	0,73
338,741	0,74
339,192	0,73
339,643	0,72
340,094	0,72
340,545	0,71
340,996	0,73
341,447	0,72
341,898	0,71
342,349	0,71
342,8	0,71
343,25	0,71
343,701	0,7
344,152	0,7
344,602	0,7
345,053	0,69
345,503	0,69
345,954	0,69
346,404	0,68
346,854	0,68
347,305	0,68
347,755	0,67
348,205	0,69
348,655	0,67
349,105	0,67
349,555	0,66
350,005	0,67
350,455	0,67
350,905	0,67
351,354	0,65
351,804	0,65
352,254	0,65
352,703	0,65
353,153	0,65
353,602	0,65
354,052	0,64
354,501	0,64
354,95	0,65
355,4	0,64
355,849	0,63
356,298	0,66
356,747	0,64
357,196	0,64
357,645	0,63
358,094	0,64
358,543	0,63
358,992	0,63
359,441	0,62
359,89	0,61
360,338	0,63
360,787	0,63
361,236	0,62
361,684	0,61
362,133	0,62
362,581	0,63
363,029	0,61
363,478	0,61
363,926	0,61
364,374	0,61
364,822	0,61
365,271	0,61
365,719	0,61
366,167	0,63
366,615	0,62
367,062	0,61
367,51	0,62
367,958	0,61
368,406	0,6
368,854	0,59
369,301	0,61
369,749	0,6
370,196	0,6
370,644	0,58
371,091	0,59
371,538	0,6
371,986	0,61
372,433	0,6
372,88	0,6
373,327	0,6
373,775	0,59
374,222	0,6
374,669	0,6
375,115	0,6
375,562	0,6
376,009	0,58
376,456	0,6
376,903	0,59
377,349	0,6
377,796	0,6
378,243	0,59
378,689	0,62
379,135	0,59
379,582	0,6
380,028	0,6
380,475	0,58
380,921	0,59
381,367	0,6
381,813	0,61
382,259	0,61
382,705	0,59
383,151	0,6
383,597	0,59
384,043	0,59
384,489	0,6
384,934	0,6
385,38	0,6
385,826	0,6
386,271	0,59
386,717	0,59
387,162	0,6
387,608	0,58
388,053	0,59
388,499	0,57
388,944	0,58
389,389	0,58
389,834	0,58
390,279	0,59
390,724	0,59
391,169	0,58
391,614	0,57
392,059	0,56
392,504	0,57
392,949	0,57
393,394	0,58
393,838	0,58
394,283	0,57
394,727	0,56
395,172	0,57
395,616	0,59
396,061	0,56
396,505	0,56
396,95	0,57
397,394	0,58
397,838	0,57
398,282	0,56
398,726	0,57
399,17	0,56
399,614	0,56
400,058	0,55
400,502	0,58
400,946	0,59
401,39	0,59
401,833	0,58
402,277	0,58
402,721	0,58
403,164	0,59
403,608	0,59
404,051	0,58
404,494	0,59
404,938	0,6
405,381	0,59
405,824	0,6
406,267	0,59
406,71	0,58
407,154	0,59
407,597	0,61
408,039	0,6
408,482	0,59
408,925	0,59
409,368	0,59
409,811	0,59
410,253	0,58
410,696	0,59
411,139	0,58
411,581	0,59
412,024	0,57
412,466	0,58
412,908	0,56
413,351	0,55
413,793	0,55
414,235	0,56
414,677	0,55
415,119	0,56
415,561	0,54
416,003	0,53
416,445	0,53
416,887	0,52
417,329	0,51
417,771	0,51
418,212	0,51
418,654	0,49
419,096	0,5
419,537	0,49
419,979	0,48
420,42	0,49
420,861	0,47
421,303	0,47
421,744	0,47
422,185	0,45
422,626	0,43
423,067	0,44
423,508	0,43
423,949	0,44
424,39	0,44
424,831	0,44
425,272	0,43
425,713	0,43
426,154	0,4
426,594	0,41
427,035	0,4
427,475	0,42
427,916	0,41
428,356	0,39
428,797	0,38
429,237	0,38
429,677	0,38
430,118	0,39
430,558	0,37
430,998	0,37
431,438	0,35
431,878	0,35
432,318	0,35
432,758	0,36
433,198	0,37
433,638	0,36
434,077	0,34
434,517	0,35
434,957	0,34
435,396	0,32
435,836	0,35
436,275	0,33
436,715	0,31
437,154	0,3
437,593	0,29
438,032	0,29
438,472	0,3
438,911	0,32
439,35	0,31
439,789	0,3
440,228	0,31
440,667	0,31
441,106	0,33
441,544	0,31
441,983	0,3
442,422	0,29
442,86	0,3
443,299	0,3
443,738	0,3
444,176	0,29
444,615	0,29
445,053	0,28
445,491	0,28
445,929	0,29
446,368	0,28
446,806	0,28
447,244	0,28
447,682	0,29
448,12	0,27
448,558	0,27
448,996	0,28
449,434	0,27
449,871	0,27
450,309	0,28
450,747	0,28
451,184	0,27
451,622	0,26
452,059	0,25
452,497	0,27
452,934	0,27
453,371	0,26
453,809	0,27
454,246	0,28
454,683	0,27
455,12	0,27
455,557	0,26
455,994	0,26
456,431	0,27
456,868	0,26
457,305	0,26
457,742	0,25
458,178	0,25
458,615	0,24
459,052	0,26
459,488	0,27
459,925	0,25
460,361	0,25
460,797	0,24
461,234	0,24
461,67	0,24
462,106	0,23
462,542	0,24
462,979	0,23
463,415	0,27
463,851	0,25
464,287	0,24
464,722	0,24
465,158	0,22
465,594	0,23
466,03	0,22
466,465	0,21
466,901	0,22
467,337	0,22
467,772	0,23
468,208	0,26
468,643	0,24
469,078	0,24
469,514	0,22
469,949	0,22
470,384	0,24
470,819	0,24
471,254	0,24
471,689	0,22
472,124	0,21
472,559	0,23
472,994	0,21
473,429	0,23
473,863	0,21
474,298	0,22
474,733	0,22
475,167	0,21
475,602	0,21
476,036	0,21
476,471	0,19
476,905	0,19
477,339	0,21
477,773	0,21
478,208	0,21
478,642	0,22
479,076	0,21
479,51	0,19
479,944	0,21
480,378	0,21
480,811	0,2
481,245	0,2
481,679	0,2
482,113	0,19
482,546	0,2
482,98	0,19
483,413	0,18
483,847	0,2
484,28	0,21
484,713	0,2
485,147	0,2
485,58	0,18
486,013	0,18
486,446	0,18
486,879	0,18
487,312	0,18
487,745	0,17
488,178	0,2
488,611	0,19
489,044	0,18
489,477	0,2
489,909	0,2
490,342	0,18
490,774	0,18
491,207	0,18
491,639	0,18
492,072	0,19
492,504	0,18
492,936	0,18
493,369	0,18
493,801	0,18
494,233	0,18
494,665	0,17
495,097	0,18
495,529	0,18
495,961	0,18
496,393	0,17
496,824	0,17
497,256	0,15
497,688	0,15
498,119	0,16
498,551	0,18
498,982	0,18
499,414	0,18
499,845	0,18
500,277	0,16
500,708	0,16
501,139	0,17
501,57	0,16
502,001	0,18
502,432	0,16
502,863	0,16
503,294	0,16
503,725	0,16
504,156	0,16
504,587	0,17
505,017	0,16
505,448	0,16
505,879	0,16
506,309	0,15
506,74	0,16
507,17	0,16
507,601	0,17
508,031	0,16
508,461	0,16
508,891	0,16
509,321	0,16
509,752	0,15
510,182	0,17
510,612	0,16
511,042	0,17
511,471	0,16
511,901	0,16
512,331	0,15
512,761	0,15
513,19	0,16
513,62	0,16
514,049	0,16
514,479	0,16
514,908	0,16
515,338	0,15
515,767	0,16
516,196	0,15
516,625	0,17
517,055	0,17
517,484	0,16
517,913	0,15
518,342	0,15
518,771	0,17
519,199	0,17
519,628	0,16
520,057	0,15
520,486	0,15
520,914	0,15
521,343	0,16
521,771	0,18
522,2	0,17
522,628	0,16
523,057	0,16
523,485	0,15
523,913	0,15
524,341	0,16
524,77	0,16
525,198	0,16
525,626	0,16
526,054	0,16
526,481	0,16
526,909	0,16
527,337	0,17
527,765	0,15
528,192	0,17
528,62	0,17
529,048	0,16
529,475	0,17
529,903	0,17
530,33	0,16
530,757	0,15
531,185	0,18
531,612	0,18
532,039	0,17
532,466	0,18
532,893	0,17
533,32	0,17
533,747	0,19
534,174	0,17
534,601	0,17
535,028	0,16
535,454	0,18
535,881	0,18
536,308	0,18
536,734	0,17
537,161	0,17
537,587	0,18
538,013	0,19
538,44	0,18
538,866	0,17
539,292	0,17
539,718	0,17
540,144	0,17
540,57	0,17
540,996	0,19
541,422	0,18
541,848	0,2
542,274	0,18
542,7	0,16
543,125	0,16
543,551	0,15
543,977	0,17
544,402	0,17
544,828	0,18
545,253	0,17
545,678	0,17
546,104	0,16
546,529	0,18
546,954	0,18
547,379	0,18
547,804	0,19
548,229	0,17
548,654	0,19
549,079	0,17
549,504	0,2
549,929	0,2
550,353	0,23
550,778	0,23
551,203	0,22
551,627	0,23
552,052	0,21
552,476	0,23
552,901	0,24
553,325	0,23
553,749	0,21
554,173	0,23
554,598	0,25
555,022	0,25
555,446	0,25
555,87	0,26
556,294	0,26
556,718	0,26
557,141	0,22
557,565	0,28
557,989	0,29
558,412	0,28
558,836	0,29
559,26	0,28
559,683	0,3
560,106	0,31
560,53	0,29
560,953	0,28
561,376	0,26
561,8	0,27
562,223	0,28
562,646	0,3
563,069	0,28
563,492	0,32
563,915	0,32
564,337	0,33
564,76	0,31
565,183	0,32
565,606	0,36
566,028	0,34
566,451	0,35
566,873	0,34
567,296	0,35
567,718	0,38
568,14	0,35
568,563	0,35
568,985	0,35
569,407	0,34
569,829	0,37
570,251	0,36
570,673	0,37
571,095	0,37
571,517	0,38
571,939	0,39
572,361	0,41
572,782	0,4
573,204	0,4
573,625	0,42
574,047	0,44
574,468	0,45
574,89	0,43
575,311	0,4
575,732	0,46
576,154	0,44
576,575	0,45
576,996	0,46
577,417	0,49
577,838	0,49
578,259	0,45
578,68	0,46
579,101	0,45
579,522	0,43
579,942	0,47
580,363	0,55
580,784	0,57
581,204	0,52
581,625	0,49
582,045	0,54
582,465	0,48
582,886	0,46
583,306	0,45
583,726	0,54
584,146	0,59
584,566	0,6
584,986	0,59
585,406	0,57
585,826	0,54
586,246	0,49
586,666	0,51
587,086	0,53
587,505	0,59
587,925	0,61
588,345	0,61
588,764	0,58
589,184	0,58
589,603	0,59
590,022	0,63
590,442	0,63
590,861	0,62
591,28	0,62
591,699	0,61
592,118	0,61
592,537	0,63
592,956	0,63
593,375	0,6
593,794	0,58
594,212	0,61
594,631	0,58
595,05	0,63
595,468	0,71
595,887	0,72
596,305	0,71
596,724	0,67
597,142	0,65
597,56	0,68
597,979	0,73
598,397	0,72
598,815	0,67
599,233	0,68
599,651	0,69
600,069	0,69
600,487	0,7
600,905	0,69
601,322	0,75
601,74	0,77
602,158	0,74
602,575	0,8
602,993	0,8
603,41	0,79
603,828	0,84
604,245	0,81
604,663	0,79
605,08	0,77
605,497	0,78
605,914	0,85
606,331	0,88
606,748	0,87
607,165	0,86
607,582	0,87
607,999	0,9
608,416	0,94
608,832	0,96
609,249	0,94
609,666	0,97
610,082	1,03
610,499	1,01
610,915	1,01
611,332	0,99
611,748	1,01
612,164	1,06
612,58	1,07
612,997	1,13
613,413	1,11
613,829	1,1
614,245	1,15
614,661	1,18
615,076	1,18
615,492	1,13
615,908	1,16
616,324	1,11
616,739	1,14
617,155	1,25
617,57	1,26
617,986	1,37
618,401	1,27
618,817	1,31
619,232	1,24
619,647	1,31
620,062	1,31
620,477	1,4
620,892	1,35
621,307	1,37
621,722	1,41
622,137	1,38
622,552	1,42
622,967	1,35
623,381	1,36
623,796	1,32
624,211	1,57
624,625	1,57
625,04	1,48
625,454	1,69
625,868	1,5
626,283	1,4
626,697	1,6
627,111	1,52
627,525	1,63
627,939	1,46
628,353	1,49
628,767	1,66
629,181	1,56
629,595	1,7
630,009	1,71
630,422	1,73
630,836	1,55
631,249	1,6
631,663	1,56
632,076	1,59
632,49	1,86
632,903	1,51
633,316	1,61
633,73	1,55
634,143	1,5
634,556	1,59
634,969	1,5
635,382	1,48
635,795	1,61
636,208	1,5
636,621	1,37
637,033	1,52
637,446	1,41
637,859	1,44
638,271	1,55
638,684	1,33
639,096	1,27
639,509	1,49
639,921	1,31
640,333	1,39
640,746	1,35
641,158	1,38
641,57	1,3
641,982	1,34
642,394	1,34
642,806	1,13
643,218	1,22
643,63	1,13
644,041	1,12
644,453	1,1
644,865	1,11
645,276	1,13
645,688	1,02
646,099	1,01
646,511	1,01
646,922	1,08
647,333	0,99
647,745	0,93
648,156	1
648,567	0,9
648,978	0,88
649,389	0,83
649,8	0,83
650,211	0,83
650,622	0,8
651,032	0,77
651,443	0,79
651,854	0,78
652,264	0,76
652,675	0,67
653,085	0,67
653,496	0,69
653,906	0,65
654,316	0,61
654,726	0,6
655,137	0,58
655,547	0,59
655,957	0,6
656,367	0,54
656,777	0,5
657,187	0,28
657,596	0,32
658,006	0,37
658,416	0,61
658,826	0,7
659,235	0,54
659,645	0,45
660,054	0,41
660,463	0,41
660,873	0,42
661,282	0,37
661,691	0,38
662,1	0,38
662,51	0,33
662,919	0,33
663,328	0,34
663,737	0,31
664,145	0,3
664,554	0,29
664,963	0,27
665,372	0,26
665,78	0,26
666,189	0,24
666,597	0,24
667,006	0,26
667,414	0,23
667,823	0,24
668,231	0,21
668,639	0,23
669,047	0,2
669,455	0,2
669,863	0,19
670,271	0,21
670,679	0,2
671,087	0,17
671,495	0,17
671,903	0,17
672,31	0,17
672,718	0,16
673,126	0,14
673,533	0,13
673,941	0,13
674,348	0,17
674,755	0,17
675,163	0,16
675,57	0,15
675,977	0,12
676,384	0,12
676,791	0,14
677,198	0,12
677,605	0,11
678,012	0,1
678,419	0,1
678,825	0,13
679,232	0,1
679,639	0,1
680,045	0,08
680,452	0,1
680,858	0,1
681,264	0,08
681,671	0,07
682,077	0,09
682,483	0,1
682,889	0,09
683,295	0,07
683,701	0,07
684,107	0,08
684,513	0,12
684,919	0,08
685,325	0,05
685,731	0,05
686,136	0,06
686,542	0,06
686,947	0,05
687,353	0,05
687,758	0,07
688,164	0,09
688,569	0,09
688,974	0,06
689,379	0,08
689,784	0,06
690,19	0,07
690,595	0,06
690,999	0,06
691,404	0,04
691,809	0,06
692,214	0,05
692,619	0,03
693,023	0,02
693,428	0,03
693,832	0,07
694,237	0,07
694,641	0,06
695,046	0,06
695,45	0,05
695,854	0,05
696,258	0,06
696,662	0,04
697,066	0,04
697,47	0,03
697,874	0,05
698,278	0,04
698,682	-0,01
699,086	0
699,489	0,07
699,893	0,09
700,297	0,07
700,7	0,05
701,104	0,07
701,507	0,05
701,91	0,04
702,314	0,05
702,717	0,05
703,12	0,05
703,523	0,04
703,926	0,03
704,329	0,03
704,732	0,03
705,135	0,05
705,538	0,07
705,94	0,07
706,343	0,06
706,746	0,05
707,148	0,06
707,551	0,06
707,953	0,04
708,355	-0,01
708,758	-0,01
709,16	0,03
709,562	0,04
709,964	0,05
710,366	0,04
710,768	0,07
711,17	0,04
711,572	0,04
711,974	0,02
712,376	0,01
712,777	0,02
713,179	0,05
713,581	0,05
713,982	0,02
714,384	0,02
714,785	0,02
715,186	0,03
715,588	0,03
715,989	0,04
716,39	0,02
716,791	0,03
717,192	0,03
717,593	0,06
717,994	0,06
718,395	0,05
718,796	0,04
719,196	0,04
719,597	0,03
719,998	0,02
720,398	0,03
720,799	0,06
721,199	0,04
721,6	0,03
722	0,04
722,4	0,04
722,8	0,02
723,201	0,04
723,601	0,03
724,001	0,02
724,401	0,04
724,8	0,04
725,2	0,04
725,6	0,05
726	0,04
726,399	0,04
726,799	0,02
727,199	0,01
727,598	0,03
727,997	0,02
728,397	0,04
728,796	0,03
729,195	0,03
729,594	0,02
729,994	0,02
730,393	0,04
730,792	0,04
731,19	0,03
731,589	0,03
731,988	0,01
732,387	0,01
732,786	0,02
733,184	0,02
733,583	0,07
733,981	0,05
734,38	0,02
734,778	0,01
735,176	0,04
735,575	0,04
735,973	0,02
736,371	0,04
736,769	0,05
737,167	0,03
737,565	0,02
737,963	0,05
738,361	0,04
738,759	0,04
739,156	0,03
739,554	0,04
739,951	0,02
740,349	0,01
740,746	0,02
741,144	0,01
741,541	0,06
741,938	0,07
742,336	0,03
742,733	0,03
743,13	0,04
743,527	0,05
743,924	0,03
744,321	0,02
744,718	0,04
745,115	0,06
745,511	0,04
745,908	0,05
746,305	0,04
746,701	0,03
747,098	0,03
747,494	0,02
747,89	0,02
748,287	0,03
748,683	0,05
749,079	0,05
749,475	0,03
749,871	0,05
750,267	0,05
750,663	0,02
751,059	0,02
751,455	-0,19
751,851	-0,19
752,246	-0,04
752,642	0,19
753,038	0,17
753,433	0,06
753,829	0,1
754,224	0,07
754,619	0,04
755,015	0,02
755,41	0,02
755,805	0,02
756,2	0,04
756,595	0,02
756,99	0
757,385	0,02
757,78	0,02
758,175	0,02
758,569	-0,01
758,964	-0
759,359	0,03
759,753	0,03
760,148	0,09
760,542	0,06
760,936	0,03
761,331	0,02
761,725	0,02
762,119	0,02
762,513	0
762,907	0,03
763,301	0,04
763,695	0,05
764,089	0,02
764,483	-0,01
764,877	-0,04
765,27	0
765,664	0,06
766,057	0,05
766,451	0
766,844	0,03
767,238	0,05
767,631	0,07
768,024	0,04
768,417	0,04
768,811	0,04
769,204	0,02
769,597	0,02
769,99	-0,01
770,383	0
770,775	0,04
771,168	0,05
771,561	0,04
771,953	0,03
772,346	0,02
772,739	0,03
773,131	0,03
773,523	0,01
773,916	0,01
774,308	0,02
774,7	0,04
775,092	0,05
775,484	0,02
775,876	0,04
776,268	0,02
776,66	0,03
777,052	0,02
777,444	0,05
777,836	0,02
778,227	0,02
778,619	0,02
779,01	0,04
779,402	0,02
779,793	0,03
780,185	0,02
780,576	0,02
780,967	0,03
781,358	0,03
781,749	0,02
782,14	0,03
782,531	-0,02
782,922	0
783,313	0,01
783,704	0,05
784,095	0,02
784,485	0,02
784,876	0,01
785,266	0,02
785,657	0,04
786,047	0,04
786,438	0,03
786,828	0,01
787,218	0,01
787,608	0,01
787,998	0,01
788,389	0,05
788,779	0,04
789,168	0,03
789,558	-0,01
789,948	0
790,338	0,01
790,728	0,03
791,117	0,04
791,507	0,04
791,896	0,01
792,286	0
792,675	0,01
793,064	0,02
793,454	0,02
793,843	0,04
794,232	0,04
794,621	0,01
795,01	0
795,399	-0,02
795,788	-0,03
796,176	-0
796,565	0,05
796,954	0,07
797,343	0,05
797,731	0,05
798,12	0,04
798,508	0,03
798,896	0,02
799,285	0
799,673	0,02
800,061	0,03
800,449	0,03
800,837	0
801,225	0,02
801,613	0,03
802,001	0,03
802,389	0,03
802,777	-0,01
803,164	0,03
803,552	0,05
803,94	0,03
804,327	0,02
804,715	0,01
805,102	0,02
805,489	0,05
805,877	0,03
806,264	0,03
806,651	0,01
807,038	-0,02
807,425	-0,01
807,812	-0,01
808,199	0,02
808,586	0,04
808,972	0,03
809,359	0,01
809,746	0,01
810,132	0,04
810,519	0,03
810,905	0,04
811,292	0,01
811,678	-0
812,064	0
812,45	-0,01
812,836	-0,02
813,223	0,01
813,609	0,06
813,995	0,04
814,38	0,02
814,766	0,01
815,152	-0,03
815,538	0,01
815,923	0,03
816,309	0,05
816,694	0,01
817,08	0,02
817,465	0,04
817,851	0,02
818,236	-0
818,621	0
819,006	-0
819,391	0,04
819,776	0,03
820,161	0,02
820,546	0,02
820,931	0,01
821,316	0,03
821,7	-0,01
822,085	-0,03
822,47	0,01
822,854	0,03
823,239	0,04
823,623	0,01
824,007	0
824,391	0
824,776	0,01
825,16	0,01
825,544	0,02
825,928	0
826,312	0
826,696	-0,02
827,08	0
827,463	-0
827,847	-0,02
828,231	-0
828,614	0
828,998	0,01
829,381	0,02
829,765	0,05
830,148	0,04
830,531	0,02
830,914	0,02
831,297	0,03
831,681	0,01
832,064	0,01
832,446	-0
832,829	0,02
833,212	0
833,595	0,01
833,978	-0
834,36	0,01
834,743	0,02
835,125	0,03
835,508	0,01
835,89	0,01
836,272	0,01
836,655	0,03
837,037	0,01
837,419	0,03
837,801	0,02
838,183	0,01
838,565	0,02
838,947	0,01
839,329	0,03
839,71	0,01
840,092	0,02
840,474	0,03
840,855	0,02
841,237	0,02
841,618	-0,03
842	-0,02
842,381	0,03
842,762	0,06
843,143	0,02
843,525	-0,02
843,906	0,01
844,287	0,02
844,667	0,03
845,048	0,01
845,429	0,02
845,81	0,03
846,191	0,01
846,571	-0
846,952	0,01
847,332	0,02
847,713	0,02
848,093	0,01
848,473	-0,02
848,854	0,01
849,234	0,01
849,614	0,02
849,994	0,03
850,374	-0
850,754	0,02
851,134	-0
851,513	-0
851,893	0,01
852,273	-0
852,652	0
853,032	0,01
853,411	0
853,791	0,03
854,17	0,01
854,55	0,01
854,929	0,01
855,308	0,03
855,687	0,01
856,066	0,02
856,445	0
856,824	0,01
857,203	0
857,582	-0
857,96	0
858,339	0,02
858,718	0,01
859,096	0,02
859,475	0,01
859,853	0,02
860,231	0,03
860,61	0,01
860,988	0,01
861,366	-0
861,744	0,01
862,122	0,01
862,5	0,01
862,878	-0,01
863,256	0,02
863,633	0
864,011	0
864,389	0,01
864,766	-0,01
865,144	0,01
865,521	0,04
865,899	0,03
866,276	0
866,653	0,01
867,031	0,02
867,408	0,01
867,785	0,01
868,162	0,01
868,539	0,01
868,916	0,01
869,292	0
869,669	0
870,046	-0
870,422	0,01
870,799	0,01
871,175	-0
871,552	-0,02
871,928	-0,01
872,305	-0,01
872,681	0,01
873,057	0,02
873,433	0,01
873,809	0,01
874,185	0,01
874,561	-0,01
874,937	0,01
875,313	0,01
875,688	0,01
876,064	-0
876,44	-0
876,815	-0,02
877,191	0,02
877,566	-0
877,942	-0,01
878,317	-0
878,692	-0,01
879,067	-0,01
879,442	-0,01
879,817	0,02
880,192	-0,01
880,567	0,02
880,942	0,01
881,317	0
881,691	0,02
882,066	-0,02
882,441	0,01
882,815	-0,01
883,19	0
883,564	-0,01
883,938	0,02
884,313	-0
884,687	0,02
885,061	-0
885,435	-0
885,809	0,01
886,183	-0,01
886,557	0,01
886,931	-0
887,305	-0,02
887,678	-0,01
888,052	-0,01
888,425	0
888,799	0
889,172	-0
889,546	-0,01
889,919	-0,01
890,292	-0,02
890,665	-0,02
891,039	-0,01
891,412	0,01
891,785	-0
892,157	-0,01
892,53	-0,03
892,903	-0,02
893,276	0
893,648	-0,01
894,021	-0,02
894,394	0,01
894,766	-0,03
895,139	0
895,511	-0,03
895,883	-0,01
896,255	-0,02
896,627	-0,03
897	-0,01
897,372	-0,03
897,744	-0,01
898,115	0
898,487	-0,02
898,859	0,01
899,231	-0
899,602	-0
899,974	-0,01
900,345	-0,01
900,717	0,02
901,088	0
901,46	-0,02
901,831	-0,03
902,202	-0,02
902,573	-0,01
902,944	-0,03
903,315	0
903,686	-0,01
904,057	0
904,428	-0,01
904,799	-0,03
905,169	-0,02
905,54	-0,01
905,91	-0,03
906,281	-0,01
906,651	-0,01
907,022	0
907,392	-0,01
907,762	0,01
908,132	-0,02
908,502	-0,03
908,872	-0
909,242	-0,03
909,612	-0,01
909,982	0,01
910,352	-0,02
910,722	-0,04
911,091	-0,02
911,461	-0,05
911,83	-0,04
912,2	-0,01
912,569	-0,02
912,938	-0,03
913,308	-0,05
913,677	-0,04
914,046	-0,04
914,415	-0,02
914,784	-0,03
915,153	-0,05
915,522	-0,02
915,891	-0,01
916,259	-0,03
916,628	-0,08
916,997	-0,02
917,365	-0,01
917,734	-0,01
918,102	-0,06
918,47	-0,05
918,839	-0,03
919,207	-0,06
919,575	-0,03
919,943	-0,01
920,311	-0,04
920,679	-0,04
921,047	-0,05
921,415	0,01
921,783	-0,01
922,15	-0,06
922,518	-0,04
922,886	-0,08
923,253	-0,09
923,62	-0,04
923,988	-0,08
924,355	-0,03
924,722	-0,04
925,09	-0
925,457	-0,08
925,824	-0,07
926,191	-0,06
926,558	-0,1
926,925	-0,06
927,291	-0,02
927,658	-0,01
928,025	-0,07
928,391	-0,11
928,758	-0,07
929,124	-0,06
929,491	-0,1
929,857	-0,06
930,223	-0,11
930,59	-0,08
930,956	-0,1
931,322	-0,06
931,688	-0,1
932,054	-0,09
932,42	-0
932,785	0
933,151	-0,02
933,517	-0,05
933,882	-0,04
934,248	-0,05
934,613	-0,03
934,979	-0,05
935,344	-0,05
935,71	-0,01
936,075	-0,12
936,44	-0,07
936,805	-0,05
937,17	-0,01
937,535	-0,06
937,9	0,06
938,265	-0,03
938,63	-0,04
938,994	-0,07
939,359	0,01
939,724	-0,07
940,088	-0,07
940,453	-0,07
940,817	-0,07
941,181	-0,03
941,545	-0,02
941,91	-0,14
942,274	-0,03
942,638	-0,04
943,002	-0,13
943,366	0,06
943,73	-0,01
944,093	-0,06
944,457	-0,08
944,821	-0,03
945,184	-0,08
945,548	-0,06
945,911	-0,1
946,275	-0,1
946,638	-0,09
947,001	-0,07
947,365	-0,03
947,728	0,02
948,091	-0,07
948,454	-0,05
948,817	0,03
949,18	0
949,543	-0,03
949,905	-0,06
950,268	-0,1
950,631	-0,01
950,993	-0,04
951,356	-0,03
951,718	-0,1
952,08	-0,06
952,443	0,07
952,805	0,03
953,167	0,02
953,529	-0,06
953,891	0,04
954,253	-0,06
954,615	-0,06
954,977	0,07
955,339	-0,01
955,7	-0,32
956,062	-0,11
956,424	-0,1
956,785	0,03
957,147	-0,04
957,508	-0,13
957,869	-0,04
958,231	0,01
958,592	0,05
958,953	-0,08
959,314	0,08
959,675	0,02
960,036	0,08
960,397	0,1
960,757	-0,12
961,118	-0,09
961,479	0,07
961,839	-0,23
962,2	-0,22
962,56	-0,63
962,921	-0,47
963,281	-0,07
963,641	-0,11
964,002	0,13
964,362	0,07
964,722	0,13
965,082	0,12
965,442	0,02
965,801	-0,11
966,161	-0,11
966,521	0,02
966,881	0,02
967,24	-0,01
967,6	-0,02
967,959	0
968,319	-0,46
968,678	0,12
969,037	0,03
969,397	0,3
969,756	-0,23
970,115	0,09
970,474	-0,02
970,833	0,21
971,192	0,35
971,55	-0,22
971,909	0,06
972,268	0,07
972,626	-0,23
972,985	-0,07
973,343	0,19
973,702	-0,54
974,06	-0,27
974,418	0,03
974,777	-0,04
975,135	-0,12
975,493	-0,15
975,851	0,16
976,209	0,21
976,567	0,11
976,925	-0,06
977,282	-0,07
977,64	-0
977,998	0,06
978,355	0,24
978,713	-0,18
979,07	-0,01
979,428	0,22
979,785	-0
980,142	0,05
980,499	-0,42
980,856	-0,27
981,213	-0
981,57	-0,77
981,927	-0
982,284	-0
982,641	0,03
982,997	-0
983,354	0,54
983,711	0,05
984,067	0,29
984,424	0,18
984,78	0,33
985,136	-0
985,493	0,09
985,849	-0,22
986,205	0,35
986,561	-0
986,917	-0
987,273	-0,78
987,629	0,61
987,984	0,17
988,34	-0,04
988,696	-0
989,051	0,24
989,407	0,16
989,762	0,08
990,118	0,17
990,473	0,47
990,828	0,04
991,183	-0
991,538	0,03
991,893	-0,2
992,248	0,43
992,603	-0
992,958	0,15
993,313	0,15
993,668	-0
994,022	0,13
994,377	-0,02
994,731	0,58
995,086	-0
995,44	-0
995,794	-0
996,149	0,27
996,503	-0,35
996,857	-0
997,211	0,01
997,565	0,43
997,919	-0
998,273	-0,06
998,627	-0
998,98	-0,04
999,334	0,06
999,687	0,14
1000,041	0,66
1000,394	-0,81
1000,748	-0,06
1001,101	0,28
1001,454	-0,02
1001,808	0,29
1002,161	0,15
1002,514	-0,01
1002,867	-0
1003,22	-0
1003,572	-0,08
1003,925	0,07
1004,278	0,49
1004,631	0,49
1004,983	-0
1005,336	-0,09
1005,688	0,47
1006,04	-0,92
1006,393	-0,69
1006,745	0,15
1007,097	-0
1007,449	-0,27
1007,801	-1
1008,153	-0,11
1008,505	-0
1008,857	-0
1009,209	-0
1009,561	0,06
1009,912	0,04
1010,264	-0
1010,615	0,03
1010,967	-0,05
1011,318	-0,32
1011,669	0,15
1012,021	1,28
1012,372	-0
1012,723	0,32
1013,074	-0,07
1013,425	-0,15
1013,776	-0
1014,127	-0
1014,477	-0,04
1014,828	0,12
1015,179	-0,02
1015,529	-0,77
1015,88	0,44
1016,23	-0
1016,581	0,36
1016,931	-0
1017,281	1,13
1017,631	0,02
1017,982	-0
1018,332	0,54
1018,682	-0,15
1019,031	-0,37
1019,381	-0,99
1019,731	-0
1020,081	-0
1020,43	0,41
1020,78	-0,08
1021,129	-0,15
1021,479	-0
1021,828	0,18
1022,178	-0,03
1022,527	0,86
1022,876	0,58
1023,225	0,01
1023,574	-0,26
1023,923	-0
1024,272	0,14
1024,621	0,03
1024,97	1,03
1025,318	-0,25
1025,667	-0,26
1026,015	0,1
1026,364	-0,74
1026,712	-0
1027,061	-0
1027,409	0,13
1027,757	-0,41
1028,105	-0,41
1028,453	-0,41
