Data from dråber_Absorbance_15-17-47-771.txt Node
Date: Tue Apr 26 15:17:47 CEST 2022
User: au615756
Spectrometer: FLMS05815
Trigger mode: 0
Integration Time (sec): 5,000000E-1
Scans to average: 1
Electric dark correction enabled: true
Nonlinearity correction enabled: false
Boxcar width: 0
XAxis mode: Wavelengths
Number of Pixels in Spectrum: 2048
>>>>>Begin Spectral Data<<<<<
187,008	0,51
187,477	0,51
187,945	0,51
188,413	-0
188,881	1,21
189,349	-0,27
189,817	-0,07
190,285	0,09
190,753	0,17
191,22	-0
191,688	0,22
192,156	-0,09
192,623	0,25
193,091	-0
193,559	-0,2
194,026	-0,86
194,493	0,23
194,961	-0
195,428	-0
195,895	-2,09
196,363	-0,26
196,83	-0,32
197,297	-0
197,764	-0,16
198,231	0,11
198,698	0,45
199,165	0,13
199,632	0,1
200,099	0,21
200,566	0,08
201,032	0,12
201,499	-0,02
201,966	0,09
202,432	0,43
202,899	0,09
203,365	0,61
203,832	0,33
204,298	0,37
204,764	0,71
205,231	0,34
205,697	0,17
206,163	0,39
206,629	0,11
207,095	0,3
207,561	0,24
208,027	0,15
208,493	0,31
208,959	0,14
209,425	0,32
209,891	0,44
210,356	0,11
210,822	0,46
211,288	0,44
211,753	0,54
212,219	0,48
212,684	0,66
213,15	0,52
213,615	0,79
214,08	0,74
214,546	1,97
215,011	0,81
215,476	0,79
215,941	0,77
216,406	0,91
216,871	1,01
217,336	1,19
217,801	1,86
218,266	1,46
218,731	1,3
219,196	1,25
219,66	1,37
220,125	1,59
220,59	1,62
221,054	1,63
221,519	1,61
221,983	1,49
222,448	1,74
222,912	1,73
223,376	1,8
223,841	2,2
224,305	1,99
224,769	2,03
225,233	1,95
225,697	2,16
226,161	2,01
226,625	1,94
227,089	1,92
227,553	2,36
228,017	2,25
228,48	2,07
228,944	1,96
229,408	2,1
229,871	2,12
230,335	2,26
230,798	2,29
231,262	2,02
231,725	2,12
232,188	2,13
232,652	2,2
233,115	2,52
233,578	2,53
234,041	1,98
234,504	2,29
234,967	2,13
235,43	2,33
235,893	2,33
236,356	2,18
236,819	2,17
237,282	2,21
237,745	2,64
238,207	1,96
238,67	2,19
239,132	2,32
239,595	2,26
240,057	2,39
240,52	2,07
240,982	2,04
241,445	2,05
241,907	2,16
242,369	2,17
242,831	2,05
243,293	2,03
243,755	2,1
244,217	2,07
244,679	2,02
245,141	1,97
245,603	2,06
246,065	2,14
246,527	2,01
246,988	2,07
247,45	1,97
247,912	1,92
248,373	1,92
248,835	1,86
249,296	1,87
249,758	1,83
250,219	1,81
250,68	1,92
251,142	1,86
251,603	1,78
252,064	1,76
252,525	1,76
252,986	1,75
253,447	1,74
253,908	1,68
254,369	1,68
254,83	1,69
255,29	1,64
255,751	1,64
256,212	1,61
256,673	1,61
257,133	1,62
257,594	1,55
258,054	1,59
258,515	1,55
258,975	1,51
259,435	1,52
259,895	1,5
260,356	1,47
260,816	1,48
261,276	1,45
261,736	1,45
262,196	1,43
262,656	1,42
263,116	1,44
263,576	1,43
264,036	1,39
264,495	1,39
264,955	1,38
265,415	1,33
265,874	1,34
266,334	1,34
266,793	1,33
267,253	1,3
267,712	1,3
268,172	1,29
268,631	1,28
269,09	1,28
269,549	1,27
270,008	1,27
270,468	1,24
270,927	1,22
271,386	1,22
271,844	1,19
272,303	1,22
272,762	1,18
273,221	1,18
273,68	1,17
274,138	1,18
274,597	1,14
275,056	1,14
275,514	1,11
275,973	1,11
276,431	1,08
276,889	1,09
277,348	1,05
277,806	1,05
278,264	1,02
278,722	1,03
279,18	1,01
279,638	0,99
280,096	0,98
280,554	0,98
281,012	0,94
281,47	0,92
281,928	0,91
282,386	0,9
282,843	0,9
283,301	0,88
283,758	0,88
284,216	0,86
284,674	0,85
285,131	0,83
285,588	0,81
286,046	0,8
286,503	0,79
286,96	0,78
287,417	0,75
287,874	0,73
288,331	0,72
288,789	0,7
289,245	0,67
289,702	0,65
290,159	0,64
290,616	0,63
291,073	0,61
291,529	0,59
291,986	0,58
292,443	0,57
292,899	0,55
293,356	0,54
293,812	0,53
294,269	0,52
294,725	0,51
295,181	0,5
295,637	0,5
296,094	0,49
296,55	0,48
297,006	0,48
297,462	0,47
297,918	0,46
298,374	0,46
298,83	0,46
299,285	0,46
299,741	0,46
300,197	0,45
300,653	0,44
301,108	0,44
301,564	0,43
302,019	0,44
302,475	0,44
302,93	0,43
303,385	0,42
303,841	0,43
304,296	0,42
304,751	0,42
305,206	0,42
305,661	0,42
306,116	0,42
306,571	0,41
307,026	0,41
307,481	0,4
307,936	0,4
308,391	0,41
308,846	0,39
309,3	0,41
309,755	0,39
310,209	0,39
310,664	0,38
311,118	0,38
311,573	0,38
312,027	0,38
312,481	0,37
312,936	0,37
313,39	0,38
313,844	0,36
314,298	0,36
314,752	0,36
315,206	0,36
315,66	0,36
316,114	0,34
316,568	0,35
317,022	0,35
317,475	0,34
317,929	0,35
318,383	0,34
318,836	0,34
319,29	0,33
319,743	0,34
320,196	0,33
320,65	0,33
321,103	0,32
321,556	0,32
322,01	0,32
322,463	0,31
322,916	0,3
323,369	0,31
323,822	0,3
324,275	0,3
324,728	0,29
325,181	0,29
325,633	0,29
326,086	0,28
326,539	0,28
326,991	0,27
327,444	0,27
327,896	0,27
328,349	0,3
328,801	0,33
329,254	0,32
329,706	0,28
330,158	0,25
330,61	0,25
331,062	0,24
331,515	0,25
331,967	0,26
332,419	0,25
332,871	0,25
333,322	0,25
333,774	0,25
334,226	0,23
334,678	0,25
335,129	0,24
335,581	0,23
336,033	0,23
336,484	0,24
336,936	0,22
337,387	0,23
337,838	0,23
338,29	0,23
338,741	0,23
339,192	0,21
339,643	0,22
340,094	0,22
340,545	0,22
340,996	0,21
341,447	0,22
341,898	0,22
342,349	0,21
342,8	0,22
343,25	0,21
343,701	0,22
344,152	0,21
344,602	0,22
345,053	0,21
345,503	0,21
345,954	0,2
346,404	0,2
346,854	0,2
347,305	0,2
347,755	0,2
348,205	0,2
348,655	0,19
349,105	0,2
349,555	0,2
350,005	0,19
350,455	0,19
350,905	0,19
351,354	0,19
351,804	0,19
352,254	0,2
352,703	0,2
353,153	0,19
353,602	0,18
354,052	0,19
354,501	0,18
354,95	0,18
355,4	0,18
355,849	0,18
356,298	0,19
356,747	0,17
357,196	0,19
357,645	0,18
358,094	0,19
358,543	0,18
358,992	0,18
359,441	0,17
359,89	0,18
360,338	0,19
360,787	0,17
361,236	0,17
361,684	0,17
362,133	0,16
362,581	0,17
363,029	0,16
363,478	0,17
363,926	0,17
364,374	0,17
364,822	0,17
365,271	0,16
365,719	0,15
366,167	0,16
366,615	0,16
367,062	0,17
367,51	0,17
367,958	0,16
368,406	0,17
368,854	0,16
369,301	0,16
369,749	0,16
370,196	0,16
370,644	0,16
371,091	0,16
371,538	0,16
371,986	0,15
372,433	0,16
372,88	0,17
373,327	0,16
373,775	0,15
374,222	0,16
374,669	0,16
375,115	0,16
375,562	0,15
376,009	0,15
376,456	0,16
376,903	0,16
377,349	0,16
377,796	0,16
378,243	0,16
378,689	0,17
379,135	0,16
379,582	0,16
380,028	0,16
380,475	0,15
380,921	0,16
381,367	0,16
381,813	0,16
382,259	0,16
382,705	0,16
383,151	0,17
383,597	0,17
384,043	0,17
384,489	0,17
384,934	0,16
385,38	0,16
385,826	0,15
386,271	0,15
386,717	0,15
387,162	0,16
387,608	0,16
388,053	0,16
388,499	0,15
388,944	0,15
389,389	0,16
389,834	0,16
390,279	0,15
390,724	0,16
391,169	0,16
391,614	0,16
392,059	0,15
392,504	0,14
392,949	0,14
393,394	0,15
393,838	0,14
394,283	0,13
394,727	0,14
395,172	0,15
395,616	0,17
396,061	0,14
396,505	0,15
396,95	0,15
397,394	0,15
397,838	0,14
398,282	0,15
398,726	0,16
399,17	0,14
399,614	0,14
400,058	0,13
400,502	0,14
400,946	0,16
401,39	0,16
401,833	0,15
402,277	0,15
402,721	0,16
403,164	0,16
403,608	0,16
404,051	0,14
404,494	0,15
404,938	0,15
405,381	0,15
405,824	0,17
406,267	0,16
406,71	0,16
407,154	0,15
407,597	0,16
408,039	0,17
408,482	0,17
408,925	0,16
409,368	0,16
409,811	0,16
410,253	0,14
410,696	0,15
411,139	0,16
411,581	0,15
412,024	0,15
412,466	0,14
412,908	0,13
413,351	0,14
413,793	0,13
414,235	0,14
414,677	0,14
415,119	0,13
415,561	0,14
416,003	0,14
416,445	0,11
416,887	0,12
417,329	0,12
417,771	0,12
418,212	0,12
418,654	0,12
419,096	0,12
419,537	0,11
419,979	0,11
420,42	0,09
420,861	0,1
421,303	0,11
421,744	0,09
422,185	0,08
422,626	0,08
423,067	0,07
423,508	0,07
423,949	0,08
424,39	0,09
424,831	0,08
425,272	0,09
425,713	0,06
426,154	0,06
426,594	0,06
427,035	0,08
427,475	0,09
427,916	0,07
428,356	0,07
428,797	0,06
429,237	0,06
429,677	0,04
430,118	0,05
430,558	0,05
430,998	0,04
431,438	0,03
431,878	0,05
432,318	0,04
432,758	0,05
433,198	0,06
433,638	0,06
434,077	0,05
434,517	0,05
434,957	0,04
435,396	0,03
435,836	0,04
436,275	0,03
436,715	0,03
437,154	0,02
437,593	0,01
438,032	0,01
438,472	0,02
438,911	0,04
439,35	0,04
439,789	0,02
440,228	0,02
440,667	0,02
441,106	0,03
441,544	0,03
441,983	0,02
442,422	0,01
442,86	-0
443,299	0,03
443,738	0,03
444,176	0,01
444,615	0,01
445,053	0,01
445,491	0,01
445,929	0
446,368	-0
446,806	0,01
447,244	0,01
447,682	0,01
448,12	0
448,558	0,01
448,996	0,01
449,434	0
449,871	0,02
450,309	0,01
450,747	0,01
451,184	0
451,622	-0
452,059	-0
452,497	0,01
452,934	0,01
453,371	0,01
453,809	0
454,246	0,01
454,683	0,01
455,12	0,02
455,557	0
455,994	0
456,431	-0
456,868	-0
457,305	-0
457,742	0,01
458,178	-0
458,615	-0,01
459,052	-0,01
459,488	-0
459,925	0
460,361	-0,01
460,797	-0,01
461,234	-0,01
461,67	-0,02
462,106	-0,01
462,542	-0
462,979	-0
463,415	0,01
463,851	-0
464,287	-0,01
464,722	-0,01
465,158	-0,01
465,594	-0,02
466,03	-0,02
466,465	-0,02
466,901	-0,03
467,337	-0,02
467,772	-0,01
468,208	0,02
468,643	0,02
469,078	-0,01
469,514	-0,03
469,949	-0,02
470,384	-0,02
470,819	-0,01
471,254	-0,01
471,689	-0,01
472,124	-0,01
472,559	-0,01
472,994	-0,03
473,429	-0,01
473,863	-0,02
474,298	-0,01
474,733	-0,02
475,167	-0,03
475,602	-0,02
476,036	-0,03
476,471	-0,04
476,905	-0,04
477,339	-0,02
477,773	-0,03
478,208	-0,01
478,642	-0,02
479,076	-0,02
479,51	-0,03
479,944	-0,01
480,378	-0,02
480,811	-0,02
481,245	-0,03
481,679	-0,03
482,113	-0,04
482,546	-0,03
482,98	-0,03
483,413	-0,03
483,847	-0,03
484,28	-0,02
484,713	-0,02
485,147	-0,03
485,58	-0,03
486,013	-0,05
486,446	-0,04
486,879	-0,04
487,312	-0,05
487,745	-0,06
488,178	-0,03
488,611	-0,03
489,044	-0,03
489,477	-0,02
489,909	-0,01
490,342	-0,03
490,774	-0,04
491,207	-0,03
491,639	-0,02
492,072	-0,03
492,504	-0,03
492,936	-0,03
493,369	-0,03
493,801	-0,03
494,233	-0,05
494,665	-0,05
495,097	-0,05
495,529	-0,05
495,961	-0,04
496,393	-0,04
496,824	-0,04
497,256	-0,05
497,688	-0,07
498,119	-0,05
498,551	-0,03
498,982	-0,02
499,414	-0,02
499,845	-0,04
500,277	-0,04
500,708	-0,04
501,139	-0,04
501,57	-0,04
502,001	-0,02
502,432	-0,05
502,863	-0,04
503,294	-0,06
503,725	-0,04
504,156	-0,05
504,587	-0,04
505,017	-0,05
505,448	-0,04
505,879	-0,04
506,309	-0,05
506,74	-0,04
507,17	-0,04
507,601	-0,03
508,031	-0,04
508,461	-0,04
508,891	-0,05
509,321	-0,04
509,752	-0,04
510,182	-0,04
510,612	-0,03
511,042	-0,04
511,471	-0,05
511,901	-0,04
512,331	-0,04
512,761	-0,04
513,19	-0,04
513,62	-0,03
514,049	-0,04
514,479	-0,04
514,908	-0,05
515,338	-0,04
515,767	-0,04
516,196	-0,05
516,625	-0,03
517,055	-0,03
517,484	-0,05
517,913	-0,06
518,342	-0,05
518,771	-0,04
519,199	-0,03
519,628	-0,04
520,057	-0,05
520,486	-0,04
520,914	-0,05
521,343	-0,03
521,771	-0,03
522,2	-0,03
522,628	-0,04
523,057	-0,04
523,485	-0,05
523,913	-0,03
524,341	-0,05
524,77	-0,03
525,198	-0,04
525,626	-0,04
526,054	-0,05
526,481	-0,04
526,909	-0,03
527,337	-0,03
527,765	-0,04
528,192	-0,04
528,62	-0,03
529,048	-0,03
529,475	-0,03
529,903	-0,04
530,33	-0,04
530,757	-0,04
531,185	-0,03
531,612	-0,01
532,039	-0,03
532,466	-0,03
532,893	-0,03
533,32	-0,03
533,747	-0,02
534,174	-0,03
534,601	-0,03
535,028	-0,05
535,454	-0,03
535,881	-0,03
536,308	-0,03
536,734	-0,03
537,161	-0,03
537,587	-0,02
538,013	-0,02
538,44	-0,02
538,866	-0,03
539,292	-0,04
539,718	-0,05
540,144	-0,04
540,57	-0,03
540,996	-0,02
541,422	-0,03
541,848	-0,02
542,274	-0,01
542,7	-0,03
543,125	-0,04
543,551	-0,03
543,977	-0,04
544,402	-0,02
544,828	-0,04
545,253	-0,03
545,678	-0,03
546,104	-0,05
546,529	-0,04
546,954	-0,03
547,379	-0,03
547,804	-0,01
548,229	-0,03
548,654	-0,03
549,079	-0,03
549,504	-0,03
549,929	-0
550,353	0,01
550,778	0,01
551,203	0,01
551,627	0
552,052	-0,02
552,476	-0
552,901	0,01
553,325	-0
553,749	-0,02
554,173	-0,01
554,598	0,01
555,022	0
555,446	0,01
555,87	0,02
556,294	0,01
556,718	0,01
557,141	-0,02
557,565	0,01
557,989	0,04
558,412	0,04
558,836	0,04
559,26	0,02
559,683	0,05
560,106	0,04
560,53	0,04
560,953	0,03
561,376	0,01
561,8	0,01
562,223	0,01
562,646	0,02
563,069	0,03
563,492	0,06
563,915	0,05
564,337	0,05
564,76	0,03
565,183	0,04
565,606	0,07
566,028	0,07
566,451	0,06
566,873	0,07
567,296	0,07
567,718	0,09
568,14	0,07
568,563	0,06
568,985	0,06
569,407	0,05
569,829	0,07
570,251	0,06
570,673	0,05
571,095	0,05
571,517	0,06
571,939	0,05
572,361	0,07
572,782	0,05
573,204	0,05
573,625	0,09
574,047	0,11
574,468	0,11
574,89	0,07
575,311	0,06
575,732	0,1
576,154	0,08
576,575	0,09
576,996	0,11
577,417	0,14
577,838	0,13
578,259	0,09
578,68	0,09
579,101	0,08
579,522	0,04
579,942	0,1
580,363	0,18
580,784	0,18
581,204	0,15
581,625	0,11
582,045	0,15
582,465	0,09
582,886	0,06
583,306	0,05
583,726	0,15
584,146	0,21
584,566	0,2
584,986	0,21
585,406	0,19
585,826	0,16
586,246	0,09
586,666	0,08
587,086	0,11
587,505	0,18
587,925	0,2
588,345	0,2
588,764	0,16
589,184	0,16
589,603	0,16
590,022	0,2
590,442	0,2
590,861	0,21
591,28	0,19
591,699	0,18
592,118	0,18
592,537	0,2
592,956	0,19
593,375	0,16
593,794	0,15
594,212	0,15
594,631	0,12
595,05	0,16
595,468	0,24
595,887	0,26
596,305	0,27
596,724	0,2
597,142	0,2
597,56	0,23
597,979	0,26
598,397	0,22
598,815	0,19
599,233	0,19
599,651	0,2
600,069	0,2
600,487	0,19
600,905	0,17
601,322	0,24
601,74	0,25
602,158	0,25
602,575	0,31
602,993	0,3
603,41	0,29
603,828	0,32
604,245	0,3
604,663	0,27
605,08	0,24
605,497	0,24
605,914	0,3
606,331	0,32
606,748	0,33
607,165	0,27
607,582	0,3
607,999	0,31
608,416	0,34
608,832	0,33
609,249	0,34
609,666	0,37
610,082	0,41
610,499	0,4
610,915	0,4
611,332	0,39
611,748	0,37
612,164	0,4
612,58	0,44
612,997	0,4
613,413	0,42
613,829	0,44
614,245	0,43
614,661	0,43
615,076	0,45
615,492	0,46
615,908	0,46
616,324	0,44
616,739	0,45
617,155	0,51
617,57	0,55
617,986	0,56
618,401	0,53
618,817	0,52
619,232	0,54
619,647	0,54
620,062	0,52
620,477	0,54
620,892	0,58
621,307	0,57
621,722	0,56
622,137	0,58
622,552	0,64
622,967	0,59
623,381	0,58
623,796	0,54
624,211	0,62
624,625	0,67
625,04	0,62
625,454	0,66
625,868	0,62
626,283	0,61
626,697	0,63
627,111	0,67
627,525	0,67
627,939	0,66
628,353	0,63
628,767	0,66
629,181	0,64
629,595	0,7
630,009	0,69
630,422	0,68
630,836	0,64
631,249	0,65
631,663	0,68
632,076	0,69
632,49	0,68
632,903	0,66
633,316	0,72
633,73	0,66
634,143	0,67
634,556	0,66
634,969	0,65
635,382	0,66
635,795	0,67
636,208	0,62
636,621	0,63
637,033	0,62
637,446	0,6
637,859	0,61
638,271	0,6
638,684	0,62
639,096	0,6
639,509	0,6
639,921	0,59
640,333	0,57
640,746	0,58
641,158	0,58
641,57	0,57
641,982	0,51
642,394	0,53
642,806	0,54
643,218	0,52
643,63	0,48
644,041	0,49
644,453	0,5
644,865	0,45
645,276	0,45
645,688	0,46
646,099	0,43
646,511	0,42
646,922	0,44
647,333	0,39
647,745	0,41
648,156	0,39
648,567	0,37
648,978	0,36
649,389	0,35
649,8	0,31
650,211	0,3
650,622	0,3
651,032	0,3
651,443	0,31
651,854	0,34
652,264	0,31
652,675	0,27
653,085	0,26
653,496	0,24
653,906	0,26
654,316	0,23
654,726	0,22
655,137	0,21
655,547	0,22
655,957	0,24
656,367	0,2
656,777	0,16
657,187	-0,07
657,596	-0,08
658,006	-0,01
658,416	0,27
658,826	0,41
659,235	0,27
659,645	0,17
660,054	0,14
660,463	0,13
660,873	0,14
661,282	0,14
661,691	0,12
662,1	0,14
662,51	0,12
662,919	0,12
663,328	0,1
663,737	0,08
664,145	0,1
664,554	0,1
664,963	0,07
665,372	0,07
665,78	0,07
666,189	0,05
666,597	0,07
667,006	0,07
667,414	0,07
667,823	0,08
668,231	0,06
668,639	0,05
669,047	0,05
669,455	0,05
669,863	0,04
670,271	0,06
670,679	0,04
671,087	0,03
671,495	0,03
671,903	0,02
672,31	0,03
672,718	0,01
673,126	-0,01
673,533	-0,01
673,941	-0
674,348	0,03
674,755	0,03
675,163	0,03
675,57	0,04
675,977	0
676,384	0,03
676,791	0,01
677,198	0,01
677,605	0,01
678,012	-0,01
678,419	0
678,825	0,02
679,232	0
679,639	-0
680,045	-0,03
680,452	0,02
680,858	-0,02
681,264	-0,02
681,671	-0,01
682,077	0,02
682,483	0,01
682,889	-0,01
683,295	-0,03
683,701	-0,01
684,107	-0
684,513	0,03
684,919	0,01
685,325	-0,03
685,731	-0,04
686,136	-0,04
686,542	-0,04
686,947	-0,03
687,353	-0,05
687,758	-0,01
688,164	0,01
688,569	-0
688,974	-0,01
689,379	-0,01
689,784	-0,02
690,19	-0,01
690,595	0
690,999	-0,01
691,404	-0,03
691,809	-0,03
692,214	-0
692,619	-0,03
693,023	-0,06
693,428	-0,03
693,832	0,01
694,237	-0,01
694,641	-0
695,046	-0,01
695,45	-0,03
695,854	-0,01
696,258	-0,01
696,662	-0,04
697,066	-0,04
697,47	-0,05
697,874	0
698,278	-0,03
698,682	-0,08
699,086	-0,09
699,489	-0,01
699,893	0,03
700,297	-0,01
700,7	-0,01
701,104	0
701,507	0
701,91	-0,01
702,314	-0,04
702,717	-0,01
703,12	-0,01
703,523	-0,03
703,926	-0,03
704,329	-0,04
704,732	-0,04
705,135	-0,01
705,538	0,02
705,94	-0
706,343	-0,01
706,746	-0,01
707,148	0,01
707,551	0,01
707,953	-0,04
708,355	-0,09
708,758	-0,09
709,16	-0,04
709,562	-0,02
709,964	-0,02
710,366	-0,02
710,768	-0,01
711,17	-0,01
711,572	-0,01
711,974	-0,02
712,376	-0,03
712,777	-0,03
713,179	-0,01
713,581	0
713,982	-0,03
714,384	-0,04
714,785	-0,03
715,186	-0,03
715,588	-0,03
715,989	-0,02
716,39	-0,04
716,791	-0,04
717,192	-0,03
717,593	-0
717,994	0,01
718,395	0,01
718,796	-0,02
719,196	-0,02
719,597	-0,05
719,998	-0,02
720,398	-0,03
720,799	0
721,199	-0,03
721,6	-0,03
722	-0
722,4	-0,01
722,8	-0,03
723,201	-0,03
723,601	-0,01
724,001	-0,01
724,401	-0,01
724,8	-0,01
725,2	-0,02
725,6	0
726	-0,01
726,399	-0,01
726,799	-0,03
727,199	-0,05
727,598	-0,01
727,997	-0,02
728,397	-0,01
728,796	-0,02
729,195	-0,02
729,594	-0,04
729,994	-0,04
730,393	-0,01
730,792	-0
731,19	-0,03
731,589	-0,02
731,988	-0,04
732,387	-0,06
732,786	-0,05
733,184	-0,05
733,583	0,01
733,981	-0,03
734,38	-0,03
734,778	-0,05
735,176	-0,02
735,575	-0,02
735,973	-0,04
736,371	-0,02
736,769	-0
737,167	-0,03
737,565	-0,05
737,963	-0,02
738,361	-0,02
738,759	-0,01
739,156	-0,03
739,554	-0,03
739,951	-0,03
740,349	-0,05
740,746	-0,04
741,144	-0,05
741,541	0,01
741,938	0,03
742,336	-0,01
742,733	0,01
743,13	-0
743,527	0
743,924	-0,01
744,321	-0,02
744,718	-0,02
745,115	0,01
745,511	-0
745,908	0,01
746,305	-0,01
746,701	0
747,098	-0,02
747,494	-0,01
747,89	-0,02
748,287	-0,01
748,683	0
749,079	0,01
749,475	-0,01
749,871	0,01
750,267	-0
750,663	-0,01
751,059	-0,04
751,455	-0,25
751,851	-0,32
752,246	-0,14
752,642	0,09
753,038	0,11
753,433	-0,01
753,829	0,04
754,224	0,02
754,619	0,01
755,015	-0,02
755,41	-0,03
755,805	-0,02
756,2	0
756,595	0
756,99	-0,04
757,385	-0,03
757,78	-0,02
758,175	-0,04
758,569	-0,08
758,964	-0,06
759,359	-0,04
759,753	-0,03
760,148	0,03
760,542	0,01
760,936	-0,01
761,331	-0,04
761,725	-0,02
762,119	-0,02
762,513	-0,05
762,907	-0,04
763,301	-0
763,695	-0,01
764,089	-0,02
764,483	-0,06
764,877	-0,11
765,27	-0,06
765,664	-0
766,057	-0,01
766,451	-0,06
766,844	-0,03
767,238	-0,01
767,631	0,02
768,024	0,01
768,417	0,01
768,811	-0,01
769,204	-0,01
769,597	-0,05
769,99	-0,07
770,383	-0,04
770,775	-0,01
771,168	0,01
771,561	0
771,953	-0,02
772,346	-0,01
772,739	-0,03
773,131	-0,02
773,523	-0,02
773,916	-0,02
774,308	-0,03
774,7	0,01
775,092	0
775,484	-0
775,876	-0
776,268	-0,01
776,66	-0,01
777,052	-0,02
777,444	0,01
777,836	-0
778,227	-0,02
778,619	-0
779,01	0
779,402	-0,01
779,793	-0,01
780,185	-0,03
780,576	-0,01
780,967	-0,01
781,358	-0
781,749	-0
782,14	-0,01
782,531	-0,06
782,922	-0,05
783,313	-0,03
783,704	0,01
784,095	-0,02
784,485	-0,03
784,876	-0,03
785,266	-0,01
785,657	-0,02
786,047	0,01
786,438	-0,01
786,828	-0,02
787,218	-0,03
787,608	-0,03
787,998	-0,03
788,389	0,02
788,779	0,01
789,168	-0,02
789,558	-0,06
789,948	-0,05
790,338	-0,04
790,728	-0,02
791,117	0,01
791,507	0,01
791,896	-0,02
792,286	-0,01
792,675	-0,01
793,064	-0,04
793,454	-0,03
793,843	-0
794,232	0
794,621	-0,04
795,01	-0,03
795,399	-0,06
795,788	-0,09
796,176	-0,07
796,565	-0
796,954	0,01
797,343	0,01
797,731	0,03
798,12	0,01
798,508	-0,01
798,896	-0,02
799,285	-0,03
799,673	-0,01
800,061	-0,01
800,449	0,01
800,837	-0,03
801,225	-0,01
801,613	-0,02
802,001	-0,02
802,389	-0,02
802,777	-0,03
803,164	-0,01
803,552	-0
803,94	0
804,327	-0,03
804,715	-0,01
805,102	-0,03
805,489	-0,01
805,877	0
806,264	-0,02
806,651	-0,02
807,038	-0,03
807,425	-0,04
807,812	-0,05
808,199	-0,03
808,586	-0,01
808,972	-0,01
809,359	-0,02
809,746	-0,04
810,132	-0,01
810,519	0,01
810,905	0,01
811,292	-0,03
811,678	-0,05
812,064	-0,03
812,45	-0,03
812,836	-0,08
813,223	-0,04
813,609	0,02
813,995	0,01
814,38	-0,03
814,766	-0,02
815,152	-0,06
815,538	-0,03
815,923	-0
816,309	0,01
816,694	-0,03
817,08	-0,01
817,465	-0,01
817,851	-0,02
818,236	-0,03
818,621	-0,05
819,006	-0,03
819,391	0
819,776	-0
820,161	-0,02
820,546	0,01
820,931	-0
821,316	-0
821,7	-0,04
822,085	-0,05
822,47	-0,03
822,854	0
823,239	0,01
823,623	-0,02
824,007	-0,01
824,391	-0,04
824,776	-0,03
825,16	-0,02
825,544	-0,01
825,928	-0,01
826,312	-0,02
826,696	-0,04
827,08	-0,02
827,463	-0,05
827,847	-0,05
828,231	-0,05
828,614	-0,04
828,998	-0,04
829,381	-0,03
829,765	0,02
830,148	0,01
830,531	-0,03
830,914	-0,02
831,297	0,01
831,681	-0,01
832,064	-0,01
832,446	-0,01
832,829	-0
833,212	-0,02
833,595	-0,01
833,978	-0,03
834,36	-0,02
834,743	-0,01
835,125	-0,01
835,508	-0,01
835,89	-0,01
836,272	-0,01
836,655	0
837,037	-0,01
837,419	0
837,801	-0,01
838,183	-0,01
838,565	-0,01
838,947	-0,02
839,329	0,01
839,71	-0,02
840,092	-0,01
840,474	-0,01
840,855	-0,02
841,237	0,01
841,618	-0,05
842	-0,07
842,381	-0,02
842,762	0,01
843,143	-0
843,525	-0,06
843,906	-0,02
844,287	-0,01
844,667	-0
845,048	-0,02
845,429	-0,03
845,81	-0,01
846,191	-0
846,571	-0,02
846,952	-0,01
847,332	-0,03
847,713	-0,02
848,093	-0,02
848,473	-0,03
848,854	-0,04
849,234	-0,01
849,614	-0,01
849,994	0,01
850,374	-0,02
850,754	-0,01
851,134	-0,02
851,513	-0,03
851,893	-0,02
852,273	-0,02
852,652	-0,02
853,032	-0,04
853,411	-0,01
853,791	-0,01
854,17	-0,02
854,55	-0,02
854,929	-0,02
855,308	-0,01
855,687	-0,03
856,066	-0,02
856,445	-0,02
856,824	-0,02
857,203	-0,04
857,582	-0,01
857,96	-0,03
858,339	-0
858,718	-0
859,096	0,01
859,475	-0,02
859,853	-0,02
860,231	-0,02
860,61	-0
860,988	-0,01
861,366	-0,02
861,744	-0,01
862,122	0
862,5	-0,01
862,878	-0,02
863,256	-0,04
863,633	-0,01
864,011	-0,01
864,389	-0,01
864,766	-0,04
865,144	-0,04
865,521	0
865,899	-0
866,276	-0,01
866,653	-0,01
867,031	-0
867,408	-0,02
867,785	-0,01
868,162	-0,02
868,539	-0,02
868,916	-0,01
869,292	-0,03
869,669	-0,01
870,046	-0,01
870,422	-0,04
870,799	-0,03
871,175	-0,05
871,552	-0,02
871,928	-0,03
872,305	-0,03
872,681	-0,01
873,057	-0,01
873,433	-0,02
873,809	-0,01
874,185	-0,03
874,561	-0,04
874,937	-0,02
875,313	-0,02
875,688	-0,03
876,064	-0,02
876,44	-0,04
876,815	-0,05
877,191	-0,02
877,566	-0,02
877,942	-0,03
878,317	-0,03
878,692	-0,03
879,067	-0,02
879,442	-0,04
879,817	-0,03
880,192	-0,04
880,567	-0
880,942	-0,03
881,317	-0,02
881,691	-0,03
882,066	-0,03
882,441	-0,03
882,815	-0,04
883,19	-0,04
883,564	-0,05
883,938	-0,02
884,313	-0,02
884,687	-0,03
885,061	-0,03
885,435	-0,04
885,809	-0,03
886,183	-0,05
886,557	-0,03
886,931	-0,05
887,305	-0,04
887,678	-0,02
888,052	-0,04
888,425	-0,03
888,799	-0,04
889,172	-0,04
889,546	-0,03
889,919	-0,04
890,292	-0,03
890,665	-0,07
891,039	-0,04
891,412	-0,03
891,785	-0,03
892,157	-0,04
892,53	-0,06
892,903	-0,05
893,276	-0,04
893,648	-0,04
894,021	-0,04
894,394	-0,05
894,766	-0,05
895,139	-0,03
895,511	-0,05
895,883	-0,04
896,255	-0,06
896,627	-0,06
897	-0,05
897,372	-0,06
897,744	-0,04
898,115	-0,03
898,487	-0,05
898,859	-0,04
899,231	-0,04
899,602	-0,04
899,974	-0,04
900,345	-0,03
900,717	-0,04
901,088	-0,03
901,46	-0,04
901,831	-0,03
902,202	-0,04
902,573	-0,05
902,944	-0,05
903,315	-0,04
903,686	-0,05
904,057	-0,05
904,428	-0,06
904,799	-0,06
905,169	-0,06
905,54	-0,05
905,91	-0,05
906,281	-0,05
906,651	-0,04
907,022	-0,04
907,392	-0,04
907,762	-0,02
908,132	-0,07
908,502	-0,05
908,872	-0,06
909,242	-0,07
909,612	-0,05
909,982	-0,07
910,352	-0,04
910,722	-0,07
911,091	-0,07
911,461	-0,1
911,83	-0,07
912,2	-0,06
912,569	-0,08
912,938	-0,07
913,308	-0,09
913,677	-0,09
914,046	-0,08
914,415	-0,08
914,784	-0,06
915,153	-0,09
915,522	-0,08
915,891	-0,07
916,259	-0,11
916,628	-0,12
916,997	-0,09
917,365	-0,06
917,734	-0,07
918,102	-0,09
918,47	-0,06
918,839	-0,09
919,207	-0,1
919,575	-0,1
919,943	-0,07
920,311	-0,1
920,679	-0,12
921,047	-0,11
921,415	-0,08
921,783	-0,08
922,15	-0,15
922,518	-0,1
922,886	-0,11
923,253	-0,14
923,62	-0,08
923,988	-0,09
924,355	-0,11
924,722	-0,13
925,09	-0,06
925,457	-0,13
925,824	-0,11
926,191	-0,1
926,558	-0,16
926,925	-0,14
927,291	-0,09
927,658	-0,08
928,025	-0,13
928,391	-0,16
928,758	-0,15
929,124	-0,16
929,491	-0,17
929,857	-0,12
930,223	-0,16
930,59	-0,14
930,956	-0,15
931,322	-0,14
931,688	-0,15
932,054	-0,17
932,42	-0,13
932,785	-0,11
933,151	-0,1
933,517	-0,14
933,882	-0,16
934,248	-0,12
934,613	-0,11
934,979	-0,16
935,344	-0,12
935,71	-0,14
936,075	-0,15
936,44	-0,13
936,805	-0,18
937,17	-0,11
937,535	-0,2
937,9	-0,07
938,265	-0,09
938,63	-0,15
938,994	-0,17
939,359	-0,17
939,724	-0,12
940,088	-0,2
940,453	-0,14
940,817	-0,15
941,181	-0,18
941,545	-0,16
941,91	-0,21
942,274	-0,08
942,638	-0,12
943,002	-0,17
943,366	-0,12
943,73	-0,15
944,093	-0,2
944,457	-0,14
944,821	-0,14
945,184	-0,18
945,548	-0,17
945,911	-0,17
946,275	-0,19
946,638	-0,23
947,001	-0,19
947,365	-0,12
947,728	-0,05
948,091	-0,2
948,454	-0,16
948,817	-0,06
949,18	-0,13
949,543	-0,16
949,905	-0,14
950,268	-0,28
950,631	-0,1
950,993	-0,08
951,356	-0,15
951,718	-0,26
952,08	-0,22
952,443	-0,09
952,805	-0,12
953,167	-0,07
953,529	-0,27
953,891	-0,1
954,253	-0,14
954,615	-0,09
954,977	-0,14
955,339	-0,09
955,7	-0,27
956,062	-0,29
956,424	-0,16
956,785	-0,14
957,147	-0,19
957,508	-0,22
957,869	-0,15
958,231	-0,24
958,592	-0,18
958,953	-0,18
959,314	-0,01
959,675	0,06
960,036	-0,14
960,397	-0,23
960,757	-0,4
961,118	-0,41
961,479	-0,02
961,839	-0,22
962,2	-0,36
962,56	-0,66
962,921	-0,4
963,281	-0,17
963,641	-0,31
964,002	-0,14
964,362	-0,03
964,722	-0,11
965,082	-0,03
965,442	-0,3
965,801	-0,19
966,161	-0,04
966,521	0,01
966,881	-0,22
967,24	-0,05
967,6	-0,15
967,959	-0,28
968,319	-0,44
968,678	-0,24
969,037	-0,34
969,397	0,19
969,756	-0,42
970,115	-0,25
970,474	-0,21
970,833	0,04
971,192	-0,18
971,55	-0,11
971,909	0,03
972,268	-0,34
972,626	-0,26
972,985	-0,52
973,343	0,09
973,702	-0,35
974,06	-0,29
974,418	-0,19
974,777	-0,32
975,135	0,08
975,493	-0,17
975,851	-0,1
976,209	-0,08
976,567	-0,42
976,925	-0,1
977,282	-0,21
977,64	-0,16
977,998	-0,26
978,355	0,24
978,713	-0,87
979,07	0,46
979,428	-0,38
979,785	-0,12
980,142	-0,41
980,499	-0
980,856	-0,28
981,213	13,36
981,57	-0,69
981,927	0,36
982,284	-0,43
982,641	-0,02
982,997	0,06
983,354	-0,14
983,711	-0,3
984,067	-0,2
984,424	-0,1
984,78	-0
985,136	-0,31
985,493	-0,19
985,849	-0,42
986,205	0,12
986,561	0,2
986,917	-0
987,273	-0
987,629	0,14
987,984	-0,16
988,34	-0,21
988,696	-0
989,051	-0,27
989,407	0,29
989,762	0,33
990,118	-0,02
990,473	0,06
990,828	0,77
991,183	-0,05
991,538	0,32
991,893	-0,09
992,248	-0,17
992,603	-0
992,958	-0,3
993,313	0,16
993,668	-0,09
994,022	0,36
994,377	-0,52
994,731	0,22
995,086	-0
995,44	-0,69
995,794	0,99
996,149	0,3
996,503	-0,57
996,857	0,09
997,211	-0,73
997,565	-0
997,919	-0,23
998,273	0,11
998,627	-0,32
998,98	-0,18
999,334	0,06
999,687	-0,31
1000,041	0,4
1000,394	-0
1000,748	-0,2
1001,101	-0
1001,454	-0
1001,808	-0,29
1002,161	-0,11
1002,514	-0,54
1002,867	-0
1003,22	-0,66
1003,572	-0,39
1003,925	-0,73
1004,278	-0
1004,631	-0
1004,983	-0,38
1005,336	-0
1005,688	-0,65
1006,04	-0,66
1006,393	-0
1006,745	-0,2
1007,097	-0,16
1007,449	-0,16
1007,801	-0
1008,153	-0,29
1008,505	-0
1008,857	0,37
1009,209	-0
1009,561	0,41
1009,912	0,08
1010,264	0,27
1010,615	-0,02
1010,967	0,23
1011,318	-0,28
1011,669	-0,05
1012,021	-0
1012,372	-0
1012,723	-0
1013,074	-0,2
1013,425	0,38
1013,776	-0,31
1014,127	-0
1014,477	0,04
1014,828	0,05
1015,179	-0,21
1015,529	-0,95
1015,88	-0
1016,23	-0
1016,581	-0,98
1016,931	0,22
1017,281	-0,45
1017,631	-0,11
1017,982	-0,46
1018,332	-0
1018,682	-0,04
1019,031	-0,03
1019,381	-1,26
1019,731	-0,37
1020,081	-0,63
1020,43	0,4
1020,78	0,27
1021,129	0,44
1021,479	-0
1021,828	0,15
1022,178	-0
1022,527	0,21
1022,876	0,23
1023,225	0,41
1023,574	-0,23
1023,923	-0
1024,272	-0,22
1024,621	-0,13
1024,97	-0,51
1025,318	-0,24
1025,667	-0,27
1026,015	-0,11
1026,364	-0
1026,712	-0
1027,061	-0,19
1027,409	-0,29
1027,757	-0,53
1028,105	-0,53
1028,453	-0,53
